12	-2571	31
141	-2571	31
243	-2565	31
261	-2571	31
240	-2557	31
254	-2565	31
218	-2565	31
106	-2557	31
33	-2554	31
113	-2554	31
197	-2565	31
215	-2565	31
202	-2554	31
211	-2557	31
205	-2557	31
115	-2554	31
23	-2554	31
30	-2554	31
116	-2554	31
133	-2557	31
152	-2557	31
151	-2551	31
189	-2551	31
141	-2554	31
62	-2554	31
31	-2551	31
158	-2554	31
221	-2551	31
226	-2551	31
194	-2554	31
197	-2551	31
185	-2554	31
97	-2551	31
32	-2554	31
81	-2551	31
146	-2551	31
179	-2554	31
181	-2551	31
187	-2551	31
214	-2551	31
149	-2551	31
67	-2551	31
93	-2551	31
208	-2551	31
226	-2551	31
222	-2551	31
184	-2551	31
173	-2534	31
81	-2534	31
-32	-2551	31
-66	-2551	31
42	-2554	31
107	-2551	31
177	-2534	31
212	-2548	31
218	-2551	31
214	-2534	31
137	-2534	31
93	-2534	31
145	-2534	31
207	-2534	31
202	-2534	31
174	-2534	31
152	-2534	31
119	-2534	31
21	-2534	31
-62	-2534	31
-21	-2534	31
93	-2534	31
132	-2529	31
141	-2517	31
121	-2529	31
156	-2517	31
139	-2531	31
88	-2529	31
69	-2517	31
149	-2517	31
209	-2517	31
210	-2517	31
184	-2517	31
194	-2512	31
146	-2512	31
64	-2512	31
-18	-2512	31
22	-2512	31
107	-2512	31
133	-2506	31
130	-2506	31
142	-2503	31
155	-2503	31
111	-2506	31
83	-2506	31
122	-2501	31
233	-2503	31
282	-2503	31
281	-2501	31
262	-2503	31
280	-2506	31
226	-2506	31
138	-2506	31
102	-2517	31
191	-2534	31
211	-2534	31
188	-2571	31
135	-2596	31
127	-2616	31
86	-2652	31
1	-2686	31
-47	-2719	31
39	-2764	31
142	-2798	31
158	-2843	31
163	-2882	31
159	-2927	31
177	-2992	31
111	-3020	31
28	-3056	31
51	-3107	31
146	-3143	31
165	-3177	31
157	-3216	31
150	-3236	31
181	-3281	31
123	-3315	31
50	-3354	31
51	-3379	31
172	-3402	31
230	-3427	31
253	-3461	31
241	-3483	31
235	-3517	31
192	-3536	31
93	-3559	31
26	-3584	31
84	-3595	31
151	-3612	31
158	-3643	31
138	-3668	31
130	-3691	31
139	-3713	31
89	-3736	31
23	-3758	31
27	-3775	31
123	-3775	31
165	-3792	31
171	-3831	31
160	-3845	31
200	-3854	31
187	-3848	31
118	-3848	31
66	-3837	31
164	-3825	31
204	-3792	31
203	-3775	31
190	-3775	31
195	-3755	31
176	-3724	31
94	-3710	31
39	-3668	31
101	-3632	31
140	-3595	31
120	-3576	31
87	-3539	31
57	-3500	31
82	-3466	31
15	-3427	31
-43	-3396	31
-2	-3365	31
125	-3323	31
173	-3298	31
203	-3258	31
208	-3219	31
238	-3180	31
228	-3143	31
164	-3101	31
135	-3056	31
230	-3020	31
252	-2992	31
216	-2941	31
171	-2882	31
147	-2857	31
108	-2815	31
23	-2762	31
-28	-2719	31
68	-2680	31
149	-2638	31
160	-2588	31
156	-2551	31
174	-2503	31
203	-2461	31
146	-2422	31
83	-2391	31
102	-2349	31
190	-2324	31
197	-2290	31
198	-2259	31
179	-2231	31
207	-2203	31
172	-2181	31
106	-2158	31
67	-2147	31
153	-2130	31
206	-2122	31
219	-2116	31
191	-2116	31
198	-2124	31
180	-2124	31
73	-2138	31
6	-2152	31
61	-2169	31
139	-2189	31
158	-2214	31
147	-2251	31
161	-2287	31
183	-2324	31
135	-2360	31
53	-2414	31
47	-2461	31
149	-2506	31
177	-2571	31
164	-2632	31
127	-2680	31
137	-2742	31
66	-2812	31
-28	-2860	31
-64	-2919	31
43	-2972	31
107	-3020	31
138	-3062	31
137	-3112	31
162	-3171	31
161	-3211	31
95	-3236	31
44	-3287	31
113	-3323	31
206	-3359	31
224	-3396	31
219	-3427	31
214	-3469	31
236	-3491	31
170	-3534	31
110	-3559	31
137	-3590	31
247	-3612	31
276	-3651	31
282	-3677	31
258	-3710	31
264	-3736	31
197	-3758	31
83	-3775	31
31	-3792	31
107	-3837	31
129	-3854	31
120	-3879	31
90	-3893	31
94	-3898	31
91	-3910	31
34	-3910	31
6	-3898	31
95	-3893	31
196	-3884	31
213	-3865	31
198	-3837	31
189	-3792	31
196	-3775	31
132	-3758	31
51	-3730	31
93	-3691	31
207	-3654	31
195	-3612	31
165	-3584	31
108	-3539	31
97	-3500	31
41	-3455	31
-50	-3416	31
-88	-3368	31
7	-3329	31
52	-3287	31
63	-3236	31
61	-3197	31
83	-3152	31
88	-3101	31
41	-3051	31
-3	-2995	31
95	-2950	31
211	-2899	31
244	-2857	31
230	-2798	31
214	-2753	31
218	-2700	31
140	-2638	31
68	-2590	31
70	-2534	31
179	-2487	31
185	-2442	31
183	-2391	31
152	-2338	31
165	-2304	31
122	-2273	31
29	-2231	31
10	-2195	31
130	-2167	31
229	-2138	31
259	-2108	31
261	-2102	31
255	-2085	31
223	-2079	31
125	-2074	31
55	-2074	31
120	-2074	31
182	-2079	31
180	-2094	31
160	-2099	31
163	-2116	31
204	-2133	31
135	-2150	31
63	-2169	31
107	-2214	31
199	-2251	31
212	-2290	31
212	-2332	31
173	-2360	31
182	-2416	31
129	-2467	31
58	-2512	31
23	-2565	31
97	-2624	31
152	-2686	31
178	-2739	31
191	-2798	31
216	-2857	31
196	-2905	31
125	-2972	31
67	-3017	31
130	-3062	31
214	-3124	31
207	-3171	31
194	-3222	31
207	-3258	31
220	-3309	31
141	-3357	31
70	-3396	31
98	-3427	31
187	-3472	31
205	-3511	31
185	-3545	31
122	-3584	31
117	-3612	31
67	-3651	31
-8	-3685	31
-55	-3722	31
38	-3755	31
66	-3775	31
56	-3792	31
39	-3837	31
50	-3854	31
58	-3868	31
-1	-3879	31
-43	-3884	31
41	-3890	31
168	-3884	31
200	-3876	31
206	-3870	31
191	-3854	31
206	-3837	31
158	-3792	31
76	-3775	31
106	-3758	31
211	-3730	31
215	-3691	31
201	-3665	31
192	-3612	31
219	-3581	31
168	-3536	31
59	-3483	31
18	-3427	31
91	-3382	31
151	-3331	31
171	-3270	31
152	-3219	31
179	-3155	31
149	-3101	31
80	-3037	31
19	-2972	31
76	-2913	31
169	-2849	31
183	-2787	31
185	-2719	31
171	-2647	31
180	-2576	31
113	-2506	31
35	-2436	31
73	-2371	31
194	-2318	31
220	-2259	31
234	-2203	31
213	-2152	31
224	-2102	31
172	-2060	31
87	-2026	31
64	-1992	31
181	-1967	31
213	-1950	31
198	-1942	31
183	-1939	31
163	-1928	31
140	-1931	31
52	-1942	31
-11	-1939	31
40	-1948	31
107	-1956	31
133	-1967	31
123	-1992	31
104	-2012	31
120	-2037	31
70	-2077	31
9	-2113	31
42	-2152	31
182	-2195	31
219	-2242	31
232	-2301	31
208	-2349	31
228	-2422	31
202	-2498	31
138	-2554	31
112	-2632	31
205	-2703	31
244	-2770	31
217	-2843	31
181	-2913	31
164	-2975	31
126	-3039	31
21	-3096	31
-27	-3143	31
43	-3197	31
133	-3236	31
178	-3295	31
198	-3334	31
191	-3376	31
203	-3410	31
126	-3455	31
33	-3494	31
50	-3534	31
150	-3567	31
188	-3590	31
204	-3629	31
187	-3677	31
217	-3710	31
168	-3755	31
89	-3775	31
55	-3825	31
125	-3854	31
177	-3893	31
201	-3915	31
178	-3941	31
185	-3957	31
187	-3963	31
128	-3963	31
81	-3960	31
118	-3949	31
206	-3941	31
206	-3927	31
166	-3898	31
147	-3890	31
114	-3854	31
31	-3814	31
-63	-3775	31
-50	-3755	31
58	-3710	31
131	-3663	31
148	-3612	31
127	-3576	31
168	-3519	31
146	-3469	31
101	-3410	31
71	-3362	31
197	-3306	31
255	-3256	31
256	-3188	31
209	-3132	31
187	-3079	31
137	-3037	31
33	-2992	31
-41	-2933	31
38	-2877	31
149	-2835	31
152	-2784	31
158	-2734	31
151	-2686	31
177	-2635	31
109	-2576	31
41	-2517	31
74	-2461	31
164	-2416	31
183	-2349	31
178	-2304	31
144	-2256	31
201	-2206	31
232	-2158	31
180	-2124	31
149	-2085	31
239	-2037	31
268	-2001	31
254	-1967	31
205	-1945	31
181	-1925	31
135	-1914	31
34	-1897	31
-55	-1900	31
-2	-1900	31
66	-1905	31
73	-1914	31
59	-1925	31
57	-1945	31
91	-1967	31
43	-1987	31
-19	-2015	31
3	-2046	31
133	-2079	31
158	-2124	31
158	-2169	31
139	-2228	31
166	-2279	31
152	-2338	31
95	-2405	31
64	-2467	31
173	-2534	31
256	-2604	31
253	-2675	31
230	-2753	31
228	-2826	31
190	-2882	31
112	-2964	31
52	-3037	31
125	-3101	31
227	-3171	31
256	-3225	31
279	-3287	31
272	-3351	31
252	-3410	31
164	-3461	31
51	-3511	31
46	-3562	31
144	-3595	31
143	-3649	31
109	-3688	31
67	-3730	31
71	-3758	31
11	-3775	31
-62	-3834	31
-89	-3854	31
40	-3890	31
145	-3907	31
163	-3927	31
158	-3946	31
172	-3955	31
180	-3963	31
106	-3960	31
53	-3949	31
147	-3941	31
266	-3924	31
290	-3907	31
279	-3879	31
267	-3848	31
276	-3792	31
213	-3772	31
125	-3730	31
131	-3685	31
207	-3632	31
173	-3584	31
141	-3536	31
96	-3483	31
95	-3416	31
59	-3365	31
-10	-3303	31
-11	-3236	31
60	-3174	31
106	-3107	31
110	-3039	31
100	-2992	31
132	-2919	31
140	-2857	31
75	-2792	31
16	-2719	31
100	-2663	31
209	-2593	31
248	-2517	31
241	-2461	31
226	-2414	31
214	-2349	31
134	-2301	31
40	-2254	31
34	-2203	31
125	-2158	31
171	-2124	31
177	-2079	31
133	-2040	31
145	-2018	31
96	-1990	31
21	-1967	31
-11	-1962	31
113	-1950	31
172	-1945	31
171	-1942	31
158	-1948	31
167	-1950	31
177	-1950	31
108	-1967	31
57	-1981	31
126	-2001	31
210	-2018	31
200	-2057	31
177	-2079	31
164	-2122	31
182	-2158	31
114	-2200	31
36	-2254	31
50	-2304	31
149	-2371	31
166	-2433	31
159	-2498	31
145	-2571	31
181	-2635	31
153	-2705	31
76	-2784	31
63	-2857	31
177	-2927	31
233	-3006	31
266	-3062	31
269	-3143	31
304	-3216	31
284	-3281	31
190	-3351	31
100	-3402	31
127	-3461	31
169	-3514	31
134	-3576	31
79	-3612	31
15	-3668	31
23	-3713	31
-50	-3758	31
-141	-3775	31
-120	-3834	31
11	-3865	31
42	-3898	31
80	-3932	31
80	-3960	31
133	-3983	31
135	-3999	31
96	-3999	31
97	-4000	31
212	-4000	31
312	-4000	31
335	-3999	31
332	-3999	31
341	-3994	31
342	-3966	31
283	-3949	31
198	-3927	31
228	-3893	31
271	-3851	31
248	-3792	31
206	-3755	31
149	-3710	31
117	-3651	31
9	-3590	31
-88	-3536	31
-88	-3472	31
9	-3416	31
25	-3359	31
25	-3301	31
4	-3225	31
40	-3171	31
27	-3107	31
-21	-3039	31
-17	-2972	31
107	-2888	31
212	-2843	31
261	-2778	31
273	-2717	31
305	-2663	31
300	-2610	31
227	-2554	31
166	-2506	31
209	-2458	31
265	-2405	31
270	-2349	31
244	-2304	31
186	-2259	31
161	-2211	31
50	-2158	31
-66	-2122	31
-50	-2079	31
93	-2046	31
144	-2026	31
162	-2012	31
156	-2001	31
187	-2001	31
165	-2001	31
83	-2015	31
40	-2015	31
104	-2035	31
138	-2037	31
127	-2068	31
94	-2094	31
100	-2122	31
84	-2147	31
18	-2169	31
-35	-2228	31
27	-2276	31
119	-2324	31
178	-2377	31
190	-2439	31
187	-2498	31
202	-2554	31
150	-2613	31
94	-2669	31
89	-2719	31
194	-2790	31
223	-2843	31
208	-2916	31
173	-2972	31
188	-3023	31
141	-3065	31
66	-3135	31
35	-3188	31
143	-3236	31
193	-3301	31
189	-3351	31
178	-3396	31
186	-3455	31
188	-3494	31
101	-3531	31
19	-3578	31
82	-3612	31
180	-3677	31
178	-3730	31
172	-3775	31
163	-3825	31
174	-3854	31
157	-3898	31
92	-3941	31
111	-3966	31
208	-3994	31
245	-3999	31
235	-4000	31
185	-4000	31
182	-4000	31
128	-3999	31
52	-3999	31
18	-3994	31
114	-3988	31
172	-3966	31
182	-3946	31
186	-3910	31
202	-3890	31
162	-3837	31
57	-3775	31
-8	-3755	31
50	-3710	31
122	-3651	31
134	-3595	31
114	-3559	31
102	-3511	31
119	-3455	31
54	-3416	31
-19	-3365	31
-3	-3315	31
127	-3258	31
152	-3219	31
159	-3171	31
155	-3112	31
187	-3048	31
155	-2995	31
87	-2944	31
53	-2899	31
122	-2857	31
176	-2812	31
178	-2767	31
159	-2714	31
163	-2666	31
145	-2624	31
83	-2576	31
33	-2529	31
105	-2478	31
219	-2433	31
229	-2391	31
230	-2349	31
222	-2324	31
233	-2296	31
190	-2273	31
145	-2237	31
203	-2211	31
321	-2189	31
336	-2169	31
314	-2158	31
261	-2150	31
240	-2152	31
174	-2150	31
43	-2147	31
-27	-2152	31
43	-2158	31
84	-2169	31
72	-2181	31
49	-2203	31
62	-2220	31
91	-2256	31
66	-2287	31
23	-2324	31
96	-2349	31
172	-2399	31
163	-2453	31
165	-2501	31
149	-2554	31
133	-2616	31
56	-2677	31
-46	-2750	31
-43	-2823	31
73	-2882	31
101	-2950	31
136	-3020	31
145	-3096	31
196	-3160	31
182	-3216	31
101	-3281	31
85	-3334	31
187	-3382	31
251	-3427	31
241	-3494	31
197	-3536	31
196	-3584	31
167	-3629	31
68	-3677	31
9	-3722	31
60	-3767	31
140	-3792	31
163	-3854	31
145	-3890	31
138	-3910	31
166	-3960	31
106	-3983	31
24	-3999	31
26	-4000	31
137	-4000	31
166	-4000	31
197	-4000	31
206	-4000	31
267	-3999	31
282	-3994	31
211	-3966	31
150	-3949	31
221	-3927	31
238	-3898	31
205	-3876	31
157	-3837	31
129	-3792	31
114	-3767	31
33	-3733	31
-38	-3691	31
2	-3649	31
84	-3595	31
90	-3564	31
89	-3514	31
108	-3469	31
139	-3416	31
87	-3359	31
10	-3303	31
36	-3236	31
178	-3174	31
214	-3124	31
213	-3054	31
197	-2995	31
250	-2941	31
238	-2874	31
161	-2815	31
130	-2759	31
215	-2686	31
258	-2632	31
252	-2574	31
196	-2506	31
174	-2461	31
129	-2405	31
31	-2349	31
-37	-2321	31
-10	-2282	31
55	-2245	31
71	-2220	31
66	-2195	31
47	-2169	31
75	-2158	31
49	-2147	31
14	-2138	31
25	-2130	31
163	-2124	31
217	-2138	31
219	-2136	31
198	-2138	31
211	-2144	31
186	-2147	31
123	-2158	31
96	-2169	31
163	-2181	31
218	-2206	31
200	-2237	31
149	-2265	31
140	-2293	31
101	-2329	31
30	-2374	31
-27	-2414	31
35	-2467	31
141	-2512	31
191	-2571	31
214	-2624	31
211	-2680	31
222	-2745	31
153	-2815	31
73	-2877	31
87	-2938	31
200	-3006	31
229	-3056	31
232	-3129	31
201	-3188	31
205	-3236	31
171	-3295	31
69	-3351	31
19	-3402	31
110	-3427	31
194	-3494	31
207	-3539	31
186	-3584	31
223	-3612	31
238	-3665	31
183	-3691	31
125	-3713	31
176	-3755	31
243	-3775	31
233	-3792	31
191	-3837	31
141	-3870	31
119	-3890	31
30	-3918	31
-76	-3941	31
-67	-3955	31
65	-3966	31
99	-3985	31
129	-3994	31
110	-3999	31
141	-3991	31
125	-3966	31
56	-3960	31
43	-3941	31
121	-3910	31
173	-3890	31
195	-3854	31
183	-3831	31
191	-3775	31
185	-3750	31
106	-3710	31
40	-3654	31
78	-3612	31
149	-3576	31
178	-3531	31
141	-3472	31
106	-3413	31
94	-3365	31
40	-3303	31
-23	-3236	31
-15	-3177	31
97	-3118	31
147	-3056	31
146	-3009	31
114	-2944	31
143	-2882	31
115	-2837	31
61	-2781	31
64	-2719	31
222	-2675	31
296	-2616	31
300	-2571	31
269	-2517	31
245	-2467	31
215	-2416	31
126	-2377	31
44	-2332	31
84	-2301	31
164	-2265	31
162	-2237	31
142	-2206	31
135	-2181	31
146	-2169	31
103	-2158	31
43	-2147	31
63	-2138	31
206	-2138	31
227	-2138	31
215	-2124	31
195	-2138	31
199	-2144	31
168	-2147	31
85	-2152	31
25	-2169	31
103	-2169	31
144	-2206	31
142	-2231	31
92	-2259	31
102	-2293	31
98	-2329	31
25	-2369	31
-17	-2416	31
66	-2475	31
202	-2531	31
239	-2585	31
245	-2647	31
214	-2708	31
247	-2770	31
168	-2837	31
65	-2899	31
51	-2964	31
141	-3028	31
155	-3065	31
134	-3135	31
119	-3199	31
132	-3253	31
116	-3303	31
39	-3354	31
10	-3396	31
100	-3427	31
195	-3494	31
240	-3536	31
227	-3576	31
242	-3595	31
240	-3629	31
172	-3668	31
100	-3710	31
143	-3736	31
197	-3775	31
174	-3792	31
126	-3837	31
109	-3868	31
166	-3890	31
163	-3910	31
72	-3927	31
57	-3949	31
157	-3963	31
129	-3963	31
107	-3963	31
56	-3960	31
60	-3941	31
18	-3927	31
-39	-3907	31
-41	-3879	31
51	-3854	31
132	-3792	31
183	-3775	31
197	-3750	31
221	-3710	31
250	-3668	31
197	-3612	31
139	-3581	31
219	-3531	31
287	-3472	31
260	-3416	31
228	-3365	31
163	-3309	31
152	-3256	31
63	-3188	31
-42	-3132	31
-47	-3056	31
68	-2995	31
79	-2938	31
65	-2860	31
62	-2798	31
115	-2719	31
120	-2663	31
61	-2590	31
62	-2517	31
167	-2467	31
232	-2405	31
247	-2349	31
221	-2318	31
236	-2273	31
254	-2231	31
187	-2195	31
121	-2155	31
169	-2124	31
243	-2105	31
242	-2079	31
214	-2065	31
194	-2057	31
200	-2040	31
135	-2037	31
74	-2037	31
88	-2046	31
174	-2057	31
186	-2060	31
172	-2068	31
129	-2079	31
145	-2096	31
102	-2116	31
27	-2138	31
-36	-2169	31
52	-2195	31
116	-2237	31
109	-2279	31
99	-2321	31
117	-2369	31
131	-2422	31
85	-2489	31
31	-2551	31
86	-2616	31
190	-2686	31
224	-2767	31
228	-2837	31
218	-2919	31
212	-2992	31
130	-3056	31
36	-3129	31
52	-3197	31
165	-3256	31
169	-3315	31
178	-3371	31
167	-3416	31
194	-3469	31
150	-3531	31
57	-3567	31
15	-3612	31
102	-3654	31
163	-3691	31
158	-3741	31
120	-3775	31
131	-3828	31
135	-3870	31
82	-3898	31
21	-3929	31
60	-3966	31
144	-3994	31
143	-3999	31
152	-4000	31
145	-4000	31
187	-4000	31
148	-4000	31
91	-4000	31
92	-3999	31
219	-3985	31
279	-3966	31
285	-3946	31
288	-3918	31
275	-3890	31
232	-3865	31
130	-3814	31
64	-3775	31
113	-3736	31
158	-3691	31
169	-3632	31
133	-3584	31
135	-3531	31
115	-3469	31
38	-3402	31
-29	-3334	31
35	-3258	31
133	-3197	31
152	-3124	31
143	-3056	31
132	-3006	31
152	-2944	31
95	-2882	31
11	-2837	31
44	-2787	31
206	-2719	31
251	-2677	31
228	-2616	31
179	-2551	31
181	-2501	31
148	-2433	31
65	-2377	31
11	-2338	31
95	-2293	31
157	-2256	31
160	-2211	31
134	-2192	31
140	-2169	31
128	-2158	31
75	-2150	31
51	-2138	31
127	-2127	31
228	-2124	31
243	-2122	31
224	-2124	31
197	-2124	31
196	-2124	31
123	-2130	31
34	-2138	31
34	-2150	31
160	-2158	31
171	-2181	31
152	-2200	31
125	-2228	31
124	-2254	31
116	-2282	31
50	-2321	31
33	-2349	31
126	-2405	31
179	-2456	31
194	-2506	31
177	-2557	31
159	-2616	31
127	-2672	31
41	-2739	31
-13	-2812	31
74	-2874	31
167	-2933	31
182	-2995	31
171	-3056	31
144	-3112	31
149	-3174	31
78	-3225	31
18	-3287	31
17	-3331	31
112	-3374	31
166	-3416	31
177	-3427	31
155	-3491	31
178	-3536	31
160	-3567	31
109	-3590	31
72	-3632	31
167	-3668	31
243	-3710	31
239	-3741	31
223	-3775	31
213	-3837	31
190	-3890	31
112	-3918	31
58	-3949	31
111	-3963	31
184	-3966	31
198	-3963	31
195	-3949	31
165	-3927	31
173	-3893	31
124	-3865	31
31		31
16		31
116		31
140		31
137		31
113		31
126		31
96		31
14		31
-31		31
78		31
161		31
183		31
165		31
182		31
192		31
130		31
80		31
138		31
239		31
247		31
257		31
250		31
255		31
167		31
68		31
45		31
131		31
150		31
130		31
111		31
167		31
177		31
129		31
112		31
196		31
260		31
272		31
243		31
240		31
223		31
116		31
6		31
14		31
76		31
73		31
79		31
73		31
108		31
64		31
-13		31
-15		31
99		31
151		31
194		31
194		31
218		31
191		31
113		31
80		31
171		31
218		31
210		31
172		31
171		31
177		31
108		31
54		31
89		31
169		31
159		31
131		31
117		31
130		31
57		31
-32		31
-28		31
127		31
203		31
203		31
182		31
187		31
166		31
98		31
82		31
179		31
239		31
247		31
232		31
240		31
188		31
75		31
-25		31
20		31
104		31
115		31
113		31
86		31
109		31
62		31
28		31
40		31
151		31
223		31
228		31
179		31
186		31
129		31
58		31
11		31
100		31
188		31
176		31
155		31
145		31
138		31
78		31
4		31
61		31
166		31
211		31
218		31
214		31
223		31
152		31
67		31
66		31
180		31
194		31
181		31
131		31
128		31
90		31
12		31
-29		31
82		31
187		31
188		31
168		31
170		31
162		31
95		31
33		31
82		31
178		31
164		31
166		31
181		31
206		31
171		31
92		31
70		31
176		31
223		31
203		31
175		31
169		31
137		31
42		31
-15		31
65		31
124		31
152		31
118		31
140		31
168		31
111		31
39		31
89		31
205		31
233		31
217		31
195		31
211		31
188		31
133		31
132		31
228		31
228		31
200		31
159		31
145		31
99		31
1		31
-52		31
45		31
97		31
104		31
69		31
86		31
95		31
23		31
-19		31
54		31
169		31
199		31
228		31
235		31
274		31
264		31
244		31
228		31
328		31
335		31
297		31
254		31
212		31
119		31
-25		31
-100		31
-37		31
8		31
9		31
12		31
49		31
73		31
44		31
24		31
99		31
195		31
209		31
205		31
177		31
185		31
117		31
52		31
61		31
135		31
169		31
177		31
156		31
195		31
195		31
167		31
140		31
225		31
290		31
293		31
247		31
227		31
190		31
81		31
-27		31
-20		31
64		31
69		31
55		31
30		31
53		31
19		31
-43		31
-26		31
108		31
158		31
185		31
158		31
184		31
164		31
95		31
61		31
165		31
251		31
261		31
238		31
228		31
243		31
165		31
103		31
139		31
227		31
222		31
207		31
169		31
176		31
122		31
39		31
46		31
148		31
165		31
134		31
96		31
108		31
85		31
14		31
-6		31
95		31
171		31
187		31
169		31
198		31
228		31
182		31
125		31
182		31
272		31
259		31
228		31
191		31
190		31
121		31
35		31
6		31
95		31
123		31
123		31
92		31
99		31
90		31
12		31
-24		31
75		31
138		31
164		31
142		31
152		31
184		31
130		31
68		31
126		31
235		31
242		31
247		31
252		31
251		31
177		31
92		31
53		31
162		31
183		31
174		31
169		31
168		31
138		31
46		31
-2		31
86		31
156		31
164		31
137		31
130		31
138		31
84		31
19		31
90		31
195		31
214		31
204		31
184		31
206		31
156		31
107		31
140		31
278		31
309		31
265		31
203		31
173		31
113		31
29		31
-34		31
51		31
145		31
153		31
152		31
161		31
149		31
89		31
4		31
24		31
118		31
144		31
133		31
116		31
138		31
82		31
-25		31
-45		31
82		31
109		31
119		31
117		31
158		31
142		31
65		31
40		31
140		31
217		31
215		31
189		31
197		31
207		31
119		31
30		31
66		31
159		31
164		31
171		31
153		31
166		31
118		31
48		31
36		31
133		31
183		31
178		31
159		31
193		31
180		31
113		31
82		31
144		31
170		31
180		31
179		31
202		31
195		31
106		31
29		31
84		31
177		31
202		31
228		31
198		31
210		31
135		31
24		31
-5		31
117		31
158		31
140		31
110		31
115		31
113		31
38		31
24		31
142		31
224		31
252		31
227		31
228		31
226		31
129		31
45		31
82		31
155		31
143		31
117		31
67		31
54		31
-3		31
-47		31
-27		31
118		31
205		31
253		31
274		31
300		31
264		31
165		31
105		31
173		31
204		31
179		31
131		31
105		31
88		31
25		31
-31		31
16		31
133		31
164		31
167		31
158		31
188		31
138		31
76		31
70		31
156		31
186		31
208		31
206		31
258		31
274		31
239		31
197		31
254		31
304		31
267		31
208		31
180		31
144		31
42		31
-56		31
-37		31
40		31
55		31
39		31
33		31
55		31
23		31
-23		31
-5		31
125		31
156		31
178		31
156		31
185		31
172		31
104		31
67		31
133		31
203		31
206		31
183		31
163		31
140		31
69		31
8		31
51		31
171		31
220		31
220		31
200		31
221		31
156		31
70		31
51		31
141		31
165		31
129		31
96		31
119		31
104		31
51		31
38		31
140		31
221		31
252		31
217		31
198		31
191		31
117		31
44		31
87		31
182		31
184		31
166		31
140		31
137		31
75		31
36		31
98		31
263		31
297		31
287		31
230		31
206		31
163		31
63		31
15		31
90		31
145		31
165		31
135		31
117		31
105		31
27		31
-45		31
6		31
145		31
174		31
178		31
147		31
149		31
99		31
34		31
36		31
158		31
214		31
206		31
190		31
188		31
157		31
84		31
38		31
129		31
204		31
227		31
206		31
208		31
212		31
122		31
22		31
69		31
176		31
182		31
173		31
133		31
133		31
76		31
23		31
40		31
143		31
192		31
211		31
195		31
211		31
177		31
79		31
3		31
75		31
153		31
169		31
173		31
233		31
276		31
223		31
163		31
219		31
307		31
290		31
257		31
179		31
137		31
31		31
-86		31
-123		31
-29		31
4		31
24		31
21		31
35		31
28		31
-32		31
-53		31
75		31
163		31
190		31
195		31
195		31
212		31
132		31
54		31
107		31
228		31
237		31
229		31
206		31
237		31
197		31
141		31
156		31
250		31
287		31
263		31
224		31
226		31
164		31
52		31
-16		31
51		31
140		31
195		31
216		31
229		31
236		31
228		31
200		31
241		31
320		31
302		31
249		31
153		31
122		31
19		31
-110		31
-145		31
-36		31
-13		31
-41		31
-60		31
41		31
142		31
107		31
64		31
174		31
267		31
275		31
228		31
184		31
151		31
60		31
-25		31
4		31
76		31
27		31
-8		31
-19		31
37		31
30		31
6		31
33		31
162		31
260		31
320		31
340		31
361		31
331		31
258		31
208		31
276		31
297		31
244		31
146		31
85		31
48		31
-43		31
-103		31
-12		31
123		31
136		31
147		31
127		31
142		31
90		31
39		31
61		31
170		31
237		31
292		31
283		31
261		31
243		31
187		31
119		31
159		31
203		31
188		31
135		31
114		31
83		31
3		31
-76		31
-39		31
64		31
106		31
115		31
117		31
150		31
110		31
75		31
99		31
223		31
267		31
297		31
259		31
261		31
225		31
105		31
24		31
103		31
172		31
152		31
114		31
79		31
63		31
12		31
-36		31
21		31
155		31
185		31
163		31
123		31
117		31
67		31
18		31
16		31
138		31
232		31
233		31
213		31
227		31
191		31
133		31
106		31
238		31
342		31
344		31
288		31
239		31
187		31
85		31
-25		31
2		31
90		31
76		31
61		31
17		31
47		31
50		31
44		31
96		31
266		31
368		31
405		31
357		31
297		31
202		31
49		31
-62		31
7		31
81		31
116		31
125		31
93		31
86		31
16		31
0		31
118		31
243		31
238		31
244		31
247		31
276		31
191		31
86		31
72		31
159		31
203		31
187		31
141		31
138		31
119		31
19		31
-57		31
11		31
92		31
127		31
129		31
138		31
121		31
22		31
-67		31
-2		31
123		31
164		31
198		31
172		31
201		31
165		31
99		31
102		31
189		31
214		31
224		31
205		31
200		31
145		31
28		31
-55		31
-11		31
41		31
64		31
72		31
124		31
172		31
148		31
113		31
145		31
249		31
291		31
310		31
274		31
278		31
199		31
82		31
50		31
139		31
126		31
106		31
59		31
64		31
62		31
-20		31
-59		31
23		31
113		31
124		31
128		31
141		31
167		31
139		31
99		31
187		31
346		31
418		31
426		31
399		31
413		31
336		31
192		31
91		31
146		31
164		31
166		31
140		31
120		31
70		31
-7		31
-11		31
124		31
215		31
248		31
179		31
117		31
90		31
-10		31
-59		31
-24		31
84		31
67		31
24		31
20		31
122		31
169		31
134		31
111		31
179		31
217		31
198		31
146		31
126		31
39		31
-114		31
-186		31
-64		31
70		31
179		31
245		31
280		31
304		31
230		31
149		31
167		31
206		31
149		31
107		31
47		31
38		31
-15		31
-75		31
-63		31
65		31
176		31
238		31
248		31
255		31
233		31
173		31
138		31
222		31
274		31
245		31
193		31
180		31
159		31
56		31
-45		31
-29		31
99		31
199		31
291		31
313		31
329		31
279		31
199		31
160		31
207		31
214		31
184		31
105		31
79		31
36		31
-24		31
-55		31
12		31
92		31
106		31
95		31
120		31
149		31
123		31
134		31
234		31
354		31
384		31
328		31
233		31
176		31
66		31
-50		31
-93		31
18		31
59		31
103		31
116		31
127		31
112		31
47		31
15		31
82		31
144		31
132		31
125		31
129		31
158		31
106		31
57		31
134		31
263		31
317		31
340		31
346		31
356		31
264		31
116		31
44		31
117		31
106		31
54		31
-16		31
-10		31
0		31
-38		31
-55		31
56		31
151		31
195		31
204		31
182		31
165		31
78		31
18		31
56		31
179		31
225		31
226		31
198		31
193		31
107		31
17		31
-25		31
50		31
91		31
110		31
124		31
179		31
177		31
126		31
146		31
325		31
507		31
522		31
461		31
410		31
374		31
232		31
72		31
5		31
28		31
-16		31
-106		31
-151		31
-106		31
-135		31
-159		31
-117		31
4		31
90		31
123		31
138		31
171		31
175		31
149		31
112		31
184		31
248		31
236		31
174		31
140		31
148		31
97		31
68		31
163		31
297		31
321		31
314		31
302		31
316		31
290		31
241		31
188		31
195		31
141		31
68		31
27		31
76		31
80		31
59		31
34		31
118		31
244		31
266		31
221		31
186		31
118		31
-10		31
-137		31
-167		31
-64		31
-4		31
60		31
108		31
177		31
195		31
157		31
169		31
275		31
314		31
288		31
218		31
171		31
117		31
24		31
-34		31
34		31
99		31
115		31
131		31
170		31
192		31
169		31
133		31
166		31
238		31
210		31
184		31
163		31
166		31
126		31
39		31
-37		31
25		31
62		31
108		31
109		31
153		31
175		31
117		31
94		31
186		31
285		31
330		31
346		31
357		31
365		31
257		31
140		31
102		31
135		31
107		31
50		31
-4		31
-20		31
-51		31
-62		31
-29		31
97		31
179		31
214		31
199		31
197		31
181		31
122		31
55		31
121		31
168		31
159		31
159		31
122		31
135		31
70		31
-8		31
44		31
176		31
207		31
212		31
198		31
196		31
135		31
24		31
-28		31
58		31
157		31
202		31
228		31
310		31
353		31
290		31
224		31
235		31
211		31
139		31
53		31
12		31
-20		31
-106		31
-139		31
-18		31
175		31
239		31
263		31
239		31
218		31
158		31
37		31
-71		31
-43		31
-24		31
-4		31
34		31
112		31
152		31
102		31
53		31
160		31
262		31
270		31
267		31
282		31
282		31
238		31
179		31
194		31
267		31
206		31
141		31
66		31
43		31
-20		31
-96		31
-65		31
123		31
217		31
258		31
288		31
304		31
227		31
86		31
6		31
51		31
102		31
53		31
47		31
99		31
135		31
103		31
42		31
56		31
128		31
151		31
198		31
181		31
142		31
65		31
-4		31
-15		31
102		31
184		31
251		31
265		31
310		31
310		31
221		31
138		31
159		31
186		31
147		31
91		31
31		31
36		31
4		31
-7		31
63		31
211		31
256		31
247		31
236		31
213		31
156		31
104		31
134		31
324		31
431		31
404		31
352		31
313		31
240		31
91		31
-66		31
-76		31
-80		31
-123		31
-104		31
-47		31
31		31
45		31
37		31
150		31
294		31
307		31
274		31
212		31
202		31
143		31
105		31
90		31
152		31
174		31
151		31
136		31
166		31
164		31
105		31
49		31
79		31
162		31
174		31
135		31
116		31
140		31
68		31
-16		31
11		31
125		31
205		31
317		31
415		31
459		31
393		31
266		31
161		31
122		31
62		31
-2		31
-35		31
6		31
41		31
-2		31
-15		31
63		31
141		31
128		31
66		31
54		31
37		31
-2		31
12		31
132		31
278		31
320		31
322		31
268		31
221		31
142		31
117		31
174		31
220		31
173		31
149		31
115		31
96		31
7		31
-135		31
-213		31
-98		31
17		31
68		31
104		31
148		31
229		31
250		31
256		31
336		31
504		31
518		31
422		31
294		31
217		31
93		31
-84		31
-198		31
-146		31
-51		31
31		31
118		31
216		31
235		31
177		31
119		31
174		31
209		31
166		31
115		31
88		31
68		31
12		31
4		31
116		31
305		31
368		31
360		31
303		31
291		31
232		31
83		31
-67		31
-96		31
-84		31
-46		31
-7		31
58		31
93		31
70		31
39		31
97		31
160		31
169		31
172		31
168		31
193		31
182		31
188		31
265		31
342		31
349		31
348		31
319		31
305		31
215		31
118		31
102		31
220		31
328		31
300		31
168		31
131		31
120		31
1		31
-173		31
-238		31
-238		31
-112		31
19		31
64		31
110		31
65		31
-7		31
-31		31
-28		31
-92		31
-85		31
-70		31
29		31
111		31
108		31
98		31
200		31
279		31
305		31
341		31
426		31
413		31
279		31
153		31
158		31
185		31
172		31
200		31
229		31
230		31
158		31
160		31
249		31
340		31
337		31
285		31
220		31
213		31
127		31
23		31
-59		31
-3		31
67		31
83		31
101		31
201		31
289		31
250		31
180		31
206		31
211		31
115		31
-8		31
-104		31
-159		31
-196		31
-164		31
-29		31
141		31
239		31
352		31
423		31
500		31
455		31
320		31
211		31
238		31
263		31
153		31
-35		31
-137		31
-167		31
-194		31
-210		31
-108		31
17		31
59		31
76		31
114		31
165		31
185		31
166		31
197		31
311		31
317		31
268		31
197		31
190		31
175		31
149		31
165		31
251		31
276		31
244		31
198		31
196		31
146		31
27		31
-13		31
66		31
130		31
116		31
64		31
59		31
40		31
-20		31
-21		31
55		31
217		31
310		31
365		31
370		31
378		31
293		31
129		31
-16		31
-60		31
-74		31
-82		31
-82		31
-33		31
9		31
7		31
52		31
189		31
296		31
338		31
325		31
257		31
196		31
117		31
57		31
108		31
275		31
332		31
310		31
248		31
142		31
4		31
-149		31
-170		31
-10		31
47		31
66		31
92		31
141		31
150		31
114		31
119		31
230		31
305		31
317		31
268		31
222		31
230		31
172		31
117		31
93		31
134		31
150		31
156		31
157		31
159		31
97		31
43		31
54		31
147		31
207		31
223		31
227		31
228		31
143		31
27		31
-39		31
19		31
122		31
153		31
157		31
174		31
203		31
161		31
108		31
156		31
219		31
174		31
169		31
148		31
155		31
111		31
28		31
23		31
125		31
159		31
173		31
184		31
169		31
156		31
99		31
66		31
114		31
172		31
193		31
233		31
305		31
303		31
212		31
72		31
7		31
13		31
-41		31
-41		31
-62		31
-23		31
20		31
36		31
71		31
166		31
233		31
217		31
153		31
129		31
100		31
36		31
-33		31
27		31
123		31
177		31
201		31
213		31
218		31
163		31
166		31
206		31
285		31
332		31
331		31
281		31
255		31
197		31
56		31
-72		31
-67		31
5		31
80		31
68		31
91		31
112		31
97		31
90		31
165		31
220		31
211		31
205		31
183		31
188		31
169		31
158		31
205		31
284		31
274		31
266		31
254		31
230		31
152		31
82		31
52		31
69		31
78		31
93		31
120		31
170		31
162		31
114		31
57		31
80		31
135		31
106		31
85		31
89		31
103		31
53		31
-6		31
13		31
93		31
132		31
146		31
160		31
206		31
195		31
166		31
184		31
276		31
313		31
293		31
241		31
206		31
152		31
93		31
28		31
59		31
109		31
133		31
135		31
133		31
137		31
102		31
70		31
94		31
165		31
140		31
114		31
99		31
117		31
66		31
-32		31
-78		31
8		31
92		31
114		31
120		31
147		31
155		31
123		31
93		31
159		31
237		31
249		31
232		31
213		31
198		31
124		31
50		31
73		31
172		31
187		31
174		31
162		31
172		31
140		31
92		31
76		31
142		31
180		31
214		31
215		31
218		31
199		31
143		31
101		31
163		31
202		31
147		31
103		31
81		31
103		31
60		31
27		31
74		31
158		31
211		31
252		31
250		31
240		31
158		31
57		31
19		31
87		31
98		31
90		31
85		31
121		31
131		31
86		31
68		31
135		31
216		31
221		31
210		31
189		31
178		31
109		31
41		31
53		31
148		31
163		31
129		31
102		31
125		31
113		31
56		31
37		31
96		31
118		31
132		31
139		31
165		31
156		31
93		31
70		31
135		31
172		31
166		31
151		31
140		31
146		31
96		31
73		31
99		31
191		31
194		31
202		31
203		31
222		31
217		31
155		31
126		31
195		31
222		31
199		31
181		31
191		31
195		31
125		31
33		31
61		31
128		31
153		31
117		31
89		31
82		31
38		31
-21		31
3		31
105		31
146		31
170		31
163		31
206		31
197		31
169		31
156		31
245		31
264		31
233		31
194		31
190		31
187		31
140		31
106		31
127		31
120		31
69		31
39		31
-10		31
-4		31
-29		31
-56		31
-5		31
115		31
175		31
187		31
194		31
236		31
209		31
147		31
133		31
203		31
232		31
236		31
201		31
196		31
178		31
96		31
39		31
80		31
109		31
89		31
76		31
66		31
92		31
57		31
14		31
49		31
152		31
195		31
201		31
175		31
186		31
150		31
91		31
82		31
185		31
235		31
244		31
216		31
230		31
235		31
175		31
130		31
171		31
206		31
169		31
111		31
48		31
32		31
-17		31
-35		31
24		31
148		31
198		31
221		31
213		31
194		31
148		31
96		31
83		31
135		31
148		31
162		31
167		31
170		31
138		31
110		31
76		31
110		31
167		31
166		31
150		31
115		31
126		31
100		31
39		31
40		31
116		31
140		31
139		31
113		31
125		31
130		31
108		31
104		31
195		31
248		31
253		31
235		31
222		31
186		31
93		31
19		31
62		31
116		31
102		31
82		31
91		31
102		31
49		31
3		31
33		31
152		31
188		31
213		31
223		31
245		31
216		31
143		31
111		31
172		31
200		31
194		31
157		31
138		31
106		31
32		31
11		31
76		31
146		31
158		31
144		31
148		31
161		31
109		31
45		31
60		31
158		31
188		31
208		31
212		31
241		31
219		31
169		31
172		31
273		31
256		31
186		31
129		31
137		31
140		31
62		31
23		31
96		31
164		31
135		31
98		31
66		31
80		31
66		31
20		31
31		31
123		31
152		31
159		31
138		31
145		31
106		31
38		31
23		31
110		31
163		31
192		31
211		31
226		31
207		31
120		31
55		31
109		31
167		31
156		31
148		31
133		31
150		31
102		31
47		31
64		31
155		31
187		31
195		31
184		31
203		31
178		31
143		31
135		31
204		31
243		31
256		31
222		31
196		31
131		31
5		31
-66		31
-2		31
100		31
148		31
171		31
165		31
176		31
113		31
40		31
64		31
169		31
211		31
220		31
190		31
198		31
130		31
44		31
21		31
108		31
174		31
174		31
128		31
138		31
134		31
91		31
48		31
82		31
144		31
143		31
120		31
116		31
140		31
103		31
37		31
51		31
158		31
194		31
226		31
213		31
226		31
180		31
106		31
73		31
141		31
170		31
163		31
153		31
153		31
133		31
69		31
10		31
61		31
145		31
153		31
147		31
156		31
182		31
148		31
110		31
115		31
217		31
233		31
207		31
171		31
168		31
149		31
110		31
110		31
196		31
243		31
233		31
186		31
170		31
150		31
69		31
-21		31
12		31
86		31
87		31
73		31
69		31
117		31
113		31
98		31
116		31
203		31
222		31
196		31
167		31
158		31
112		31
40		31
5		31
68		31
125		31
151		31
141		31
147		31
156		31
102		31
44		31
109		31
192		31
205		31
190		31
170		31
174		31
113		31
47		31
43		31
136		31
177		31
178		31
174		31
192		31
176		31
141		31
150		31
227		31
266		31
268		31
232		31
206		31
170		31
69		31
-12		31
45		31
104		31
102		31
103		31
83		31
106		31
71		31
44		31
105		31
228		31
270		31
266		31
230		31
236		31
213		31
117		31
53		31
107		31
129		31
112		31
74		31
72		31
60		31
0		31
-53		31
8		31
73		31
81		31
65		31
63		31
93		31
53		31
10		31
43		31
173		31
221		31
273		31
285		31
321		31
281		31
177		31
123		31
170		31
177		31
145		31
91		31
93		31
96		31
25		31
-21		31
34		31
118		31
138		31
159		31
151		31
165		31
115		31
52		31
76		31
182		31
224		31
230		31
206		31
221		31
191		31
109		31
69		31
149		31
186		31
198		31
181		31
181		31
171		31
103		31
50		31
113		31
189		31
182		31
170		31
152		31
166		31
121		31
80		31
102		31
209		31
241		31
234		31
214		31
223		31
171		31
62		31
11		31
114		31
165		31
182		31
158		31
147		31
157		31
99		31
52		31
107		31
202		31
236		31
271		31
259		31
236		31
162		31
102		31
110		31
206		31
219		31
174		31
149		31
159		31
82		31
-32		31
-75		31
-17		31
13		31
29		31
23		31
30		31
45		31
-7		31
-50		31
46		31
142		31
171		31
191		31
190		31
220		31
186		31
155		31
166		31
244		31
263		31
251		31
208		31
187		31
131		31
46		31
-3		31
78		31
162		31
186		31
159		31
163		31
152		31
98		31
49		31
118		31
248		31
304		31
297		31
271		31
267		31
193		31
100		31
108		31
216		31
225		31
215		31
166		31
170		31
112		31
18		31
-34		31
44		31
133		31
169		31
181		31
167		31
149		31
48		31
-29		31
24		31
116		31
131		31
138		31
146		31
149		31
89		31
0		31
4		31
92		31
125		31
134		31
108		31
122		31
72		31
-5		31
-29		31
83		31
152		31
191		31
194		31
204		31
212		31
142		31
84		31
125		31
208		31
195		31
187		31
167		31
168		31
106		31
19		31
6		31
94		31
140		31
150		31
152		31
167		31
136		31
74		31
50		31
174		31
241		31
259		31
243		31
245		31
247		31
160		31
91		31
132		31
211		31
198		31
199		31
202		31
236		31
190		31
98		31
75		31
177		31
207		31
170		31
119		31
94		31
41		31
-28		31
-47		31
40		31
100		31
137		31
128		31
149		31
172		31
109		31
78		31
162		31
244		31
236		31
202		31
148		31
134		31
55		31
-14		31
-10		31
95		31
134		31
149		31
146		31
179		31
171		31
121		31
95		31
184		31
247		31
254		31
219		31
227		31
197		31
98		31
27		31
51		31
109		31
112		31
93		31
67		31
79		31
24		31
-23		31
16		31
152		31
207		31
233		31
218		31
252		31
221		31
196		31
239		31
366		31
414		31
376		31
310		31
259		31
203		31
86		31
-9		31
-13		31
41		31
52		31
16		31
-23		31
-2		31
-64		31
-135		31
-109		31
29		31
110		31
141		31
134		31
167		31
148		31
73		31
43		31
129		31
184		31
192		31
144		31
140		31
143		31
61		31
-19		31
46		31
162		31
186		31
194		31
176		31
190		31
149		31
110		31
129		31
250		31
304		31
282		31
261		31
271		31
220		31
127		31
58		31
122		31
132		31
111		31
79		31
82		31
80		31
14		31
-27		31
70		31
207		31
248		31
273		31
275		31
284		31
201		31
104		31
66		31
159		31
205		31
200		31
174		31
169		31
122		31
31		31
-19		31
54		31
99		31
104		31
96		31
124		31
152		31
107		31
44		31
123		31
249		31
281		31
317		31
317		31
310		31
216		31
129		31
112		31
172		31
175		31
145		31
94		31
64		31
14		31
-57		31
-88		31
-10		31
63		31
113		31
126		31
167		31
178		31
129		31
56		31
72		31
134		31
143		31
126		31
107		31
118		31
54		31
-17		31
-10		31
117		31
140		31
131		31
97		31
122		31
110		31
65		31
97		31
255		31
356		31
368		31
334		31
307		31
276		31
173		31
72		31
115		31
193		31
182		31
158		31
125		31
127		31
45		31
-36		31
-41		31
81		31
136		31
163		31
159		31
227		31
267		31
219		31
194		31
282		31
338		31
357		31
339		31
353		31
359		31
255		31
124		31
87		31
130		31
75		31
18		31
-53		31
-56		31
-91		31
-177		31
-199		31
-103		31
-49		31
-8		31
17		31
70		31
86		31
41		31
46		31
242		31
396		31
430		31
389		31
325		31
263		31
126		31
-2		31
3		31
60		31
24		31
-8		31
-36		31
-25		31
-71		31
-125		31
-101		31
27		31
130		31
190		31
224		31
285		31
271		31
223		31
197		31
271		31
310		31
317		31
277		31
271		31
256		31
176		31
115		31
157		31
238		31
230		31
203		31
178		31
193		31
124		31
59		31
59		31
149		31
192		31
206		31
193		31
239		31
282		31
314		31
343		31
410		31
445		31
426		31
327		31
225		31
109		31
-41		31
-153		31
-153		31
-96		31
-106		31
-140		31
-162		31
-156		31
-205		31
-261		31
-206		31
-22		31
66		31
115		31
132		31
215		31
211		31
135		31
97		31
164		31
220		31
220		31
194		31
200		31
208		31
150		31
83		31
119		31
217		31
248		31
255		31
250		31
259		31
189		31
94		31
120		31
260		31
265		31
239		31
168		31
144		31
99		31
35		31
46		31
149		31
222		31
214		31
172		31
116		31
68		31
-29		31
-123		31
-78		31
35		31
55		31
60		31
49		31
72		31
27		31
-50		31
-16		31
115		31
195		31
238		31
254		31
294		31
272		31
220		31
237		31
420		31
528		31
522		31
467		31
399		31
336		31
174		31
5		31
-3		31
51		31
31		31
17		31
9		31
19		31
-44		31
-104		31
-80		31
46		31
130		31
161		31
165		31
248		31
297		31
313		31
299		31
368		31
442		31
458		31
485		31
450		31
357		31
190		31
1		31
-37		31
-18		31
-84		31
-139		31
-190		31
-193		31
-245		31
-294		31
-289		31
-157		31
-57		31
7		31
88		31
223		31
266		31
206		31
158		31
239		31
307		31
314		31
249		31
205		31
170		31
39		31
-66		31
-35		31
87		31
138		31
200		31
253		31
314		31
266		31
178		31
204		31
465		31
615		31
637		31
564		31
459		31
288		31
61		31
-66		31
-69		31
-52		31
-86		31
-123		31
-144		31
-162		31
-227		31
-312		31
-230		31
-63		31
20		31
73		31
82		31
106		31
53		31
-19		31
-11		31
127		31
200		31
213		31
179		31
209		31
213		31
189		31
213		31
355		31
429		31
470		31
500		31
510		31
483		31
370		31
233		31
160		31
212		31
190		31
138		31
81		31
41		31
-49		31
-141		31
-124		31
1		31
69		31
141		31
193		31
241		31
205		31
123		31
79		31
175		31
190		31
150		31
94		31
98		31
167		31
136		31
56		31
62		31
108		31
66		31
35		31
-5		31
2		31
-29		31
-29		31
17		31
134		31
212		31
277		31
305		31
342		31
338		31
324		31
297		31
328		31
318		31
246		31
129		31
62		31
59		31
16		31
-29		31
9		31
113		31
104		31
45		31
-3		31
-24		31
-102		31
-185		31
-146		31
17		31
132		31
199		31
198		31
248		31
269		31
240		31
195		31
239		31
254		31
255		31
202		31
183		31
168		31
137		31
148		31
177		31
247		31
214		31
167		31
96		31
78		31
49		31
27		31
56		31
211		31
290		31
226		31
117		31
34		31
-43		31
-151		31
-179		31
-32		31
106		31
184		31
209		31
247		31
256		31
194		31
149		31
192		31
275		31
266		31
222		31
171		31
181		31
129		31
8		31
-36		31
56		31
62		31
75		31
95		31
189		31
233		31
219		31
226		31
293		31
348		31
344		31
310		31
312		31
350		31
248		31
118		31
155		31
274		31
261		31
217		31
174		31
134		31
38		31
-67		31
-119		31
-104		31
-67		31
19		31
105		31
229		31
247		31
150		31
76		31
161		31
192		31
146		31
88		31
70		31
84		31
1		31
-92		31
-49		31
53		31
63		31
57		31
30		31
59		31
54		31
49		31
112		31
251		31
294		31
300		31
264		31
267		31
214		31
84		31
-9		31
46		31
60		31
61		31
110		31
126		31
166		31
152		31
97		31
125		31
195		31
178		31
141		31
90		31
84		31
30		31
-53		31
-98		31
-28		31
-6		31
5		31
28		31
94		31
102		31
69		31
68		31
222		31
366		31
457		31
469		31
462		31
448		31
341		31
237		31
198		31
241		31
269		31
289		31
285		31
259		31
138		31
5		31
-71		31
-3		31
20		31
22		31
-18		31
-7		31
-17		31
-45		31
-16		31
110		31
280		31
355		31
384		31
431		31
410		31
297		31
182		31
205		31
238		31
161		31
52		31
-37		31
-47		31
-98		31
-132		31
-169		31
-45		31
93		31
173		31
146		31
152		31
141		31
70		31
25		31
76		31
119		31
143		31
160		31
159		31
191		31
153		31
160		31
229		31
332		31
376		31
356		31
340		31
310		31
230		31
64		31
-45		31
36		31
59		31
64		31
54		31
93		31
128		31
195		31
244		31
354		31
396		31
338		31
241		31
172		31
111		31
-11		31
-102		31
-88		31
-39		31
-98		31
-86		31
-67		31
2		31
-19		31
-55		31
-18		31
151		31
272		31
267		31
222		31
227		31
190		31
116		31
72		31
153		31
271		31
297		31
243		31
197		31
192		31
126		31
46		31
40		31
111		31
122		31
108		31
110		31
120		31
67		31
-1		31
35		31
220		31
335		31
382		31
393		31
428		31
370		31
240		31
145		31
203		31
242		31
201		31
118		31
56		31
27		31
-57		31
-114		31
-49		31
94		31
134		31
149		31
164		31
166		31
89		31
13		31
3		31
126		31
188		31
189		31
184		31
227		31
201		31
115		31
96		31
243		31
360		31
366		31
288		31
208		31
191		31
150		31
88		31
117		31
238		31
248		31
245		31
110		31
11		31
-71		31
-159		31
-235		31
-205		31
-169		31
-159		31
-110		31
-27		31
44		31
22		31
17		31
106		31
204		31
279		31
326		31
373		31
366		31
282		31
161		31
138		31
204		31
200		31
130		31
58		31
1		31
-96		31
-121		31
-54		31
94		31
175		31
208		31
205		31
233		31
210		31
134		31
62		31
158		31
260		31
300		31
319		31
340		31
353		31
281		31
213		31
208		31
260		31
266		31
254		31
209		31
208		31
118		31
-7		31
-49		31
39		31
53		31
56		31
11		31
29		31
61		31
59		31
51		31
138		31
241		31
248		31
227		31
202		31
181		31
81		31
42		31
129		31
262		31
302		31
286		31
214		31
158		31
70		31
-14		31
4		31
134		31
128		31
63		31
21		31
41		31
72		31
20		31
21		31
190		31
253		31
248		31
219		31
189		31
169		31
57		31
15		31
62		31
146		31
181		31
170		31
155		31
203		31
215		31
170		31
106		31
146		31
161		31
137		31
112		31
156		31
106		31
-26		31
-116		31
-26		31
92		31
174		31
213		31
206		31
212		31
153		31
60		31
106		31
254		31
317		31
321		31
264		31
233		31
135		31
25		31
-20		31
40		31
49		31
32		31
46		31
102		31
133		31
105		31
130		31
304		31
442		31
419		31
352		31
281		31
226		31
144		31
74		31
108		31
194		31
167		31
69		31
31		31
-10		31
-143		31
-252		31
-252		31
-130		31
-17		31
79		31
147		31
232		31
249		31
218		31
192		31
292		31
410		31
396		31
317		31
237		31
189		31
101		31
-6		31
-43		31
0		31
13		31
-13		31
6		31
99		31
150		31
169		31
192		31
265		31
282		31
255		31
196		31
148		31
78		31
-16		31
-34		31
97		31
192		31
232		31
241		31
198		31
155		31
48		31
-60		31
-59		31
75		31
188		31
275		31
294		31
305		31
257		31
157		31
91		31
96		31
44		31
12		31
27		31
65		31
133		31
165		31
186		31
283		31
343		31
380		31
319		31
232		31
184		31
21		31
-136		31
-166		31
-91		31
-43		31
-39		31
0		31
107		31
143		31
131		31
109		31
184		31
204		31
185		31
133		31
149		31
153		31
81		31
13		31
69		31
122		31
119		31
99		31
149		31
211		31
200		31
194		31
219		31
319		31
314		31
284		31
226		31
193		31
90		31
-23		31
-67		31
7		31
111		31
185		31
202		31
257		31
313		31
301		31
266		31
302		31
319		31
243		31
125		31
56		31
13		31
-36		31
-24		31
49		31
183		31
257		31
247		31
202		31
156		31
54		31
-11		31
-64		31
-94		31
-143		31
-112		31
-53		31
32		31
89		31
96		31
119		31
249		31
328		31
338		31
339		31
346		31
366		31
265		31
144		31
145		31
196		31
178		31
113		31
40		31
40		31
36		31
19		31
30		31
160		31
203		31
206		31
205		31
276		31
375		31
374		31
310		31
310		31
291		31
184		31
46		31
-81		31
-131		31
-177		31
-201		31
-126		31
31		31
92		31
106		31
132		31
182		31
181		31
151		31
123		31
179		31
205		31
205		31
164		31
197		31
212		31
158		31
142		31
223		31
265		31
244		31
184		31
87		31
24		31
-1		31
25		31
63		31
132		31
158		31
156		31
157		31
259		31
297		31
213		31
167		31
180		31
141		31
119		31
50		31
25		31
9		31
5		31
32		31
68		31
111		31
101		31
114		31
189		31
295		31
305		31
226		31
220		31
218		31
111		31
18		31
-45		31
-40		31
-72		31
-110		31
-59		31
129		31
305		31
418		31
421		31
426		31
413		31
260		31
79		31
24		31
27		31
44		31
67		31
109		31
182		31
129		31
17		31
-6		31
4		31
0		31
27		31
76		31
150		31
164		31
153		31
245		31
434		31
483		31
452		31
321		31
218		31
85		31
-116		31
-307		31
-285		31
-169		31
-96		31
-43		31
2		31
95		31
133		31
193		31
292		31
408		31
426		31
445		31
442		31
394		31
228		31
49		31
-44		31
-35		31
-34		31
15		31
41		31
23		31
49		
54		
76		
236		
340		
365		
368		
344		
324		
160		
11		
0		
32		
57		
55		
14		
39		
10		
-5		
92		
301		
413		
421		
368		
319		
167		
-84		
-285		
-261		
-169		
-94		
-19		
56		
202		
244		
213		
244		
348		
319		
254		
242		
239		
185		
98		
47		
135		
175		
195		
209		
313		
364		
239		
138		
140		
144		
116		
75		
36		
-10		
-39		
-60		
-21		
110		
197		
230		
182		
175		
135		
58		
56		
165		
216		
202		
146		
113		
53		
-43		
-66		
80		
241		
345		
410		
424		
399		
252		
78		
2		
45		
17		
-66		
-75		
-3		
59		
124		
185		
262		
261		
238		
182		
156		
146		
54		
-83		
-24		
81		
87		
97		
85		
119		
150		
178		
214		
292		
292		
233		
177		
175		
127		
31		
5		
76		
113		
146		
164		
184		
169		
75		
18		
72		
139		
145		
155		
172		
186		
164		
133		
207		
355		
405		
332		
195		
133		
34		
-63		
-65		
18		
70		
102		
144		
190		
187		
124		
39		
104		
179		
183		
179		
158		
159		
131		
78		
55		
126		
160		
174		
158		
162		
107		
17		
-8		
70		
126		
121		
108		
180		
233		
195		
157		
194		
230		
223		
171		
75		
23		
-11		
-36		
38		
164		
196		
217		
205		
221		
179		
112		
82		
140		
174		
181		
162		
149		
168		
131		
83		
124		
194		
225		
211		
170		
173		
152		
105		
133		
207		
211		
193		
145		
125		
60		
4		
11		
98		
127		
118		
102		
116		
112		
74		
44		
120		
198		
201		
187		
175		
198		
146		
83		
73		
138		
167		
193		
221		
245		
193		
101		
43		
93		
101		
117		
101		
92		
95		
51		
33		
101		
174		
182		
162		
149		
174		
156		
120		
146		
236		
264		
221		
171		
153		
88		
28		
20		
86		
114		
138		
125		
162		
164		
100		
36		
110		
164		
149		
138		
121		
159		
122		
80		
99		
186		
212		
232		
210		
212		
170		
98		
82		
128		
158		
168		
145		
156		
139		
96		
42		
81		
151		
162		
129		
88		
76		
33		
-16		
36		
163		
171		
178		
184		
223		
191		
130		
130		
212		
238		
217		
159		
115		
89		
17		
-12		
50		
122		
137		
135		
136		
149		
103		
32		
54		
137		
151		
168		
163		
180		
133		
71		
69		
183		
227		
230		
216		
241		
249		
187		
147		
202		
253		
220		
173		
122		
71		
-14		
-51		
-14		
78		
100		
98		
99		
109		
113		
70		
63		
165		
203		
190		
162		
163		
163		
103		
70		
164		
239		
207		
181		
174		
172		
111		
46		
60		
131		
156		
161		
150		
159		
120		
45		
17		
115		
152		
151		
136		
148		
146		
88		
44		
119		
198		
218		
248		
269		
296		
251		
178		
153		
188		
166		
117		
62		
78		
49		
-31		
-45		
68		
120		
148		
144		
158		
156		
113		
88		
147		
249		
296		
324		
337		
303		
197		
95		
88		
155		
148		
140		
94		
75		
12		
-62		
-92		
-5		
52		
75		
91		
130		
147		
100		
61		
137		
223		
237		
226		
193		
195		
138		
59		
73		
177		
217		
214		
170		
180		
135		
75		
43		
114		
144		
153		
138		
122		
100		
37		
-4		
52		
142		
174		
192		
195		
197		
142		
94		
108		
188		
208		
196		
161		
161		
125		
53		
44		
138		
181		
190		
166		
167		
184		
146		
91		
133		
190		
188		
169		
152		
167		
140		
90		
97		
179		
210		
192		
156		
160		
121		
31		
6		
100		
125		
130		
90		
100		
101		
82		
72		
168		
283		
310		
299		
252		
227		
136		
61		
36		
102		
102		
71		
72		
76		
25		
-51		
-53		
45		
112		
150		
152		
164		
164		
113		
65		
109		
198		
243		
233		
227		
230		
186		
118		
113		
200		
223		
215		
186		
186		
132		
38		
-3		
75		
116		
113		
114		
129		
126		
80		
45		
150		
253		
289		
305		
304		
289		
190		
66		
-7		
41		
52		
67		
87		
127		
89		
29		
20		
130		
182		
195		
202		
183		
145		
72		
29		
93		
179		
213		
267		
260		
267		
213		
110		
81		
108		
100		
58		
17		
48		
23		
-46		
-45		
58		
125		
155		
150		
158		
146		
89		
41		
122		
212		
217		
228		
245		
290		
267		
198		
183		
241		
238		
187		
116		
101		
57		
-15		
-55		
42		
110		
133		
127		
155		
146		
85		
45		
127		
232		
232		
258		
293		
319		
262		
172		
114		
156		
143		
101		
55		
62		
38		
-33		
-42		
55		
111		
144		
125		
137		
130		
83		
52		
125		
208		
226		
230		
241		
267		
200		
112		
96		
205		
217		
187		
156		
127		
84		
17		
-3		
73		
118		
125		
116		
137		
133		
80		
16		
90		
174		
187		
184		
190		
224		
194		
149		
171		
269		
267		
250		
188		
166		
95		
13		
2		
109		
177		
171		
161		
157		
139		
58		
-6		
55		
175		
194		
179		
172		
165		
106		
25		
43		
134		
166		
179		
171		
199		
175		
125		
111		
171		
176		
141		
86		
69		
59		
-11		
-49		
72		
215		
244		
251		
247		
233		
155		
56		
38		
108		
119		
93		
64		
88		
53		
-3		
-7		
96		
149		
151		
152		
165		
150		
91		
28		
110		
226		
238		
247		
260		
284		
230		
151		
141		
215		
239		
204		
153		
138		
75		
-29		
-46		
84		
132		
152		
140		
138		
131		
66		
16		
86		
194		
229		
240		
240		
244		
174		
83		
101		
247		
293		
274		
221		
194		
134		
16		
-55		
20		
67		
56		
42		
51		
50		
-4		
-49		
27		
125		
149		
157		
193		
243		
203		
133		
150		
279		
293		
275		
239		
235		
165		
38		
-7		
66		
109		
109		
85		
98		
130		
93		
44		
106		
194		
205		
198		
205		
228		
187		
117		
143		
256		
269		
241		
179		
179		
129		
27		
-17		
85		
115		
88		
58		
49		
39		
-37		
-92		
-5		
105		
134		
152		
156		
198		
176		
129		
161		
258		
280		
263		
232		
238		
180		
82		
17		
96		
125		
113		
105		
121		
131		
73		
12		
96		
233		
245		
256		
241		
226		
161		
80		
103		
215		
236		
187		
153		
150		
117		
65		
52		
158		
186		
150		
92		
88		
107		
59		
18		
78		
195		
249		
241		
219		
219		
164		
65		
48		
133		
142		
110		
85		
94		
67		
-7		
-33		
94		
164		
189		
184		
197		
176		
97		
28		
115		
209		
205		
205		
184		
210		
155		
83		
78		
168		
184		
176		
146		
157		
121		
28		
-5		
90		
157		
146		
123		
113		
104		
53		
4		
88		
207		
230		
241		
258		
270		
209		
103		
88		
179		
195		
185		
140		
124		
99		
44		
11		
117		
173		
179		
170		
220		
264		
205		
129		
174		
254		
230		
201		
143		
111		
19		
-87		
-98		
-4		
38		
66		
80		
140		
169		
167		
180		
294		
326		
276		
233		
188		
133		
0		
-110		
-56		
46		
53		
55		
64		
93		
58		
-2		
35		
164		
214		
258		
279		
310		
269		
178		
117		
202		
248		
228		
201		
168		
140		
34		
-57		
8		
138		
195		
215		
208		
221		
160		
82		
118		
297		
402		
380		
324		
310		
214		
53		
-51		
5		
42		
12		
-26		
-20		
-21		
-88		
-157		
-65		
31		
40		
64		
72		
138		
118		
54		
80		
239		
314		
327		
320		
356		
319		
207		
142		
222		
257		
247		
214		
182		
177		
102		
30		
86		
197		
189		
122		
96		
110		
81		
-12		
-32		
60		
69		
69		
36		
61		
44		
-2		
-6		
136		
219		
236		
227		
240		
257		
165		
58		
104		
215		
190		
152		
121		
134		
80		
-11		
17		
145		
200		
228		
207		
239		
207		
119		
88		
222		
278		
286		
297		
300		
279		
158		
72		
103		
139		
80		
29		
-6		
-13		
-89		
-162		
-101		
60		
108		
129		
131		
163		
180		
156		
143		
281		
346		
353		
353		
366		
376		
302		
232		
245		
309		
270		
153		
58		
1		
-116		
-222		
-243		
-128		
-55		
-53		
-52		
-25		
-40		
-110		
-136		
0		
90		
126		
132		
176		
219		
178		
113		
218		
359		
376		
375		
374		
399		
334		
218		
184		
267		
240		
184		
149		
145		
75		
-45		
-106		
20		
106		
120		
131		
141		
138		
58		
-18		
48		
162		
159		
134		
110		
113		
68		
4		
34		
174		
223		
235		
214		
220		
150		
41		
7		
167		
323		
437		
507		
518		
482		
354		
232		
212		
269		
240		
177		
95		
66		
12		
-104		
-148		
-71		
-82		
-98		
-145		
-141		
-169		
-202		
-137		
17		
124		
168		
183		
224		
241		
176		
110		
162		
279		
292		
313		
370		
420		
370		
256		
209		
272		
250		
220		
157		
111		
36		
-74		
-101		
36		
98		
124		
108		
127		
159		
121		
68		
72		
160		
166		
153		
121		
119		
84		
47		
69		
175		
211		
195		
149		
137		
91		
-16		
-74		
61		
173		
225		
232		
261		
254		
166		
59		
95		
201		
217		
227		
198		
252		
238		
158		
126		
230		
259		
246		
217		
195		
140		
17		
-80		
-10		
33		
33		
-7		
-28		
-8		
-25		
-29		
98		
235		
251		
255		
222		
186		
88		
-23		
-69		
43		
86		
141		
204		
245		
228		
135		
72		
175		
239		
237		
214		
192		
162		
62		
-21		
12		
134		
190		
254		
320		
366		
320		
179		
128		
164		
114		
58		
-20		
-19		
-69		
-145		
-180		
-44		
54		
82		
105		
113		
138		
70		
23		
82		
205		
222		
213		
222		
256		
261		
209		
225		
350		
384		
351		
331		
384		
399		
300		
215		
285		
265		
188		
99		
36		
-16		
-84		
-116		
-56		
69		
94		
90		
91		
126		
114		
78		
123		
269		
319		
294		
230		
229		
208		
123		
63		
159		
191		
145		
84		
74		
122		
135		
130		
158		
170		
101		
63		
14		
-27		
-102		
-188		
-199		
-73		
-17		
-10		
-13		
81		
133		
101		
108		
241		
302		
289		
255		
229		
228		
159		
90		
123		
216		
230		
254		
275		
305		
290		
211		
194		
266		
252		
205		
157		
177		
105		
-41		
-128		
-37		
35		
45		
22		
43		
94		
87		
106		
206		
327		
328		
286		
248		
276		
255		
195		
168		
224		
166		
84		
31		
55		
43		
-28		
-35		
85		
115		
111		
94		
88		
128		
98		
82		
228		
450		
474		
408		
297		
203		
72		
-56		
-106		
-75		
-75		
-109		
-168		
-114		
-82		
-117		
-92		
96		
220		
300		
326		
338		
335		
244		
181		
236		
384		
426		
395		
339		
264		
188		
148		
230		
416		
410		
332		
186		
35		
-153		
-322		
-411		
-295		
-153		
-89		
-74		
-43		
49		
82		
100		
203		
338		
322		
278		
210		
183		
112		
28		
28		
138		
198		
203		
206		
204		
175		
94		
45		
140		
237		
254		
233		
213		
187		
96		
6		
50		
171		
216		
226		
238		
247		
184		
103		
130		
269		
273		
211		
133		
119		
55		
-67		
-143		
-19		
84		
110		
160		
193		
226		
187		
144		
216		
392		
447		
381		
336		
309		
263		
180		
135		
214		
157		
69		
-85		
-167		
-221		
-330		
-351		
-210		
-64		
18		
118		
182		
225		
208		
201		
323		
483		
478		
382		
282		
230		
141		
6		
-38		
24		
16		
3		
1		
48		
60		
24		
5		
133		
211		
203		
213		
218		
201		
138		
80		
142		
250		
245		
205		
162		
182		
163		
116		
95		
218		
293		
293		
254		
209		
136		
43		
-25		
29		
57		
68		
89		
128		
148		
118		
110		
204		
331		
314		
284		
235		
179		
37		
-129		
-197		
-106		
-14		
63		
116		
174		
204		
171		
143		
200		
215		
173		
108		
88		
89		
58		
35		
119		
233		
249		
239		
238		
261		
235		
186		
160		
249		
270		
267		
255		
266		
235		
156		
85		
143		
156		
100		
17		
-83		
-171		
-257		
-289		
-202		
-45		
66		
163		
233		
285		
259		
197		
168		
288		
287		
220		
126		
82		
73		
7		
-2		
156		
258		
235		
207		
201		
206		
141		
69		
79		
133		
138		
160		
236		
313		
300		
245		
236		
269		
241		
213		
172		
158		
45		
-127		
-204		
-72		
70		
160		
205		
239		
246		
178		
108		
116		
155		
124		
53		
-42		
-31		
-33		
-34		
4		
132		
199		
241		
243		
225		
187		
129		
118		
211		
304		
309		
259		
258		
259		
197		
96		
82		
118		
67		
20		
1		
43		
17		
-19		
6		
151		
175		
108		
91		
145		
188		
174		
177		
263		
307		
273		
220		
206		
194		
127		
95		
163		
255		
221		
109		
-32		
-91		
-121		
-131		
-52		
127		
233		
276		
237		
222		
190		
126		
90		
159		
236		
213		
187		
152		
131		
86		
55		
94		
190		
271		
307		
295		
295		
203		
63		
-25		
-26		
-25		
-13		
8		
40		
63		
54		
44		
155		
245		
273		
275		
251		
237		
148		
40		
28		
80		
109		
141		
111		
87		
47		
30		
57		
208		
300		
321		
269		
226		
199		
150		
137		
184		
188		
186		
186		
160		
138		
49		
-46		
-23		
82		
183		
267		
290		
251		
140		
46		
21		
75		
99		
122		
86		
101		
149		
187		
197		
244		
266		
220		
167		
140		
113		
48		
-63		
-82		
29		
87		
135		
130		
176		
210		
157		
119		
159		
131		
58		
-9		
-6		
8		
19		
1		
126		
233		
245		
224		
222		
244		
161		
82		
101		
178		
190		
180		
214		
382		
440		
366		
333		
376		
279		
94		
-89		
-196		
-241		
-199		
-112		
62		
243		
278		
215		
142		
94		
5		
-114		
-126		
7		
103		
172		
243		
296		
240		
169		
180		
245		
187		
92		
52		
72		
73		
31		
1		
113		
266		
376		
425		
421		
384		
245		
80		
16		
23		
39		
7		
-12		
66		
57		
18		
9		
93		
129		
155		
163		
195		
223		
200		
161		
265		
357		
332		
272		
205		
215		
191		
134		
99		
104		
57		
-32		
-125		
-182		
-221		
-206		
-136		
24		
140		
212		
230		
259		
239		
202		
200		
247		
340		
421		
467		
461		
423		
334		
135		
-7		
0		
-22		
-75		
-111		
-78		
-44		
-59		
-38		
105		
187		
239		
219		
200		
130		
19		
-25		
79		
191		
230		
265		
263		
274		
228		
178		
243		
335		
338		
305		
237		
181		
64		
-44		
-75		
9		
89		
126		
129		
172		
205		
180		
98		
124		
171		
146		
141		
155		
181		
133		
83		
120		
185		
187		
170		
145		
166		
134		
56		
57		
200		
240		
232		
232		
243		
224		
147		
71		
106		
130		
72		
0		
-47		
-36		
-53		
-69		
8		
112		
177		
210		
219		
243		
192		
125		
96		
180		
242		
264		
225		
218		
162		
41		
-40		
43		
142		
179		
206		
196		
191		
104		
31		
27		
63		
87		
73		
96		
167		
132		
82		
46		
94		
108		
115		
99		
114		
148		
157		
158		
210		
283		
310		
299		
277		
238		
119		
-21		
-31		
49		
85		
112		
120		
158		
134		
79		
64		
156		
179		
140		
81		
61		
53		
17		
-11		
54		
150		
197		
249		
326		
357		
263		
148		
124		
158		
83		
12		
-9		
37		
36		
-12		
9		
134		
214		
233		
247		
267		
241		
185		
135		
171		
181		
146		
127		
116		
102		
59		
37		
85		
143		
143		
150		
162		
190		
180		
134		
105		
183		
214		
210		
195		
224		
227		
155		
93		
150		
192		
175		
174		
144		
138		
99		
46		
45		
122		
167		
147		
148		
166		
111		
36		
23		
115		
155		
148		
113		
113		
124		
85		
50		
133		
195		
189		
169		
147		
145		
95		
74		
103		
180		
222		
229		
222		
233		
198		
125		
85		
145		
149		
111		
70		
71		
65		
43		
32		
95		
151		
174		
171		
174		
185		
140		
89		
107		
178		
185		
178		
169		
187		
134		
63		
52		
160		
232		
276		
263		
241		
203		
95		
-23		
-10		
35		
82		
139		
148		
149		
84		
6		
19		
104		
133		
157		
163		
188		
171		
144		
153		
233		
233		
206		
164		
172		
183		
124		
84		
155		
232		
210		
174		
157		
114		
12		
-73		
-47		
45		
97		
131		
152		
202		
177		
100		
60		
133		
156		
156		
127		
138		
119		
67		
33		
93		
165		
159		
157		
157		
166		
117		
54		
90		
160		
179		
186		
153		
173		
128		
71		
57		
149		
196		
202		
181		
199		
214		
173		
137		
202		
256		
209		
158		
102		
90		
52		
28		
80		
182		
211		
216		
235		
244		
173		
83		
57		
109		
89		
50		
32		
50		
45		
20		
18		
101		
174		
194		
208		
224		
252		
228		
182		
191		
278		
283		
232		
184		
182		
133		
28		
-51		
-13		
35		
57		
62		
93		
99		
65		
30		
106		
167		
172		
174		
168		
177		
121		
47		
58		
158		
174		
182		
170		
179		
142		
78		
67		
162		
221		
242		
235		
228		
205		
116		
37		
56		
113		
106		
93		
90		
95		
63		
27		
88		
188		
212		
218		
203		
224		
181		
101		
64		
142		
185		
195		
193		
169		
138		
93		
49		
94		
147		
145		
138		
144		
162		
101		
9		
24		
130		
158		
144		
109		
135		
109		
53		
40		
141		
178		
170		
143		
139		
130		
76		
54		
129		
228		
239		
229		
224		
222		
178		
92		
85		
146		
153		
141		
102		
125		
101		
46		
39		
130		
160		
165		
141		
158		
159		
104		
60		
122		
210		
217		
223		
222		
244		
206		
149		
163		
245		
260		
226		
172		
153		
86		
-33		
-101		
-38		
15		
52		
86		
139		
146		
88		
36		
145		
272		
269		
262		
248		
229		
167		
84		
96		
213		
205		
135		
98		
78		
39		
-31		
-57		
37		
111		
135		
118		
131		
131		
91		
45		
130		
233		
268		
271		
263		
254		
185		
109		
98		
143		
114		
90		
80		
100		
75		
13		
-4		
105		
166		
178		
179		
186		
188		
143		
99		
189		
279		
291		
277		
252		
224		
142		
51		
61		
145		
141		
125		
91		
100		
71		
21		
-15		
69		
106		
109		
98		
109		
130		
98		
87		
178		
310		
343		
329		
296		
255		
148		
27		
12		
63		
44		
19		
19		
45		
25		
-41		
-41		
74		
104		
118		
119		
150		
162		
107		
63		
109		
198		
224		
220		
219		
239		
181		
107		
102		
172		
192		
192		
172		
190		
164		
85		
49		
124		
165		
159		
125		
119		
92		
28		
-20		
81		
193		
218		
218		
216		
252		
224		
150		
142		
244		
248		
244		
206		
196		
150		
74		
46		
107		
135		
118		
99		
104		
97		
51		
14		
90		
188		
203		
182		
172		
169		
119		
64		
86		
155		
142		
148		
134		
128		
69		
3		
-19		
93		
135		
130		
117		
131		
147		
94		
44		
115		
208		
220		
222		
204		
206		
133		
50		
92		
190		
209		
197		
183		
203		
158		
83		
64		
166		
203		
216		
199		
182		
177		
98		
37		
85		
162		
158		
122		
119		
129		
84		
31		
58		
168		
197		
202		
195		
222		
193		
102		
57		
137		
153		
150		
133		
137		
135		
73		
36		
97		
166		
184		
196		
203		
227		
190		
134		
133		
208		
218		
172		
121		
82		
9		
-71		
-96		
17		
89		
95		
66		
90		
91		
47		
10		
110		
206		
207		
223		
238		
275		
210		
121		
124		
227		
255		
240		
198		
177		
137		
75		
84		
229		
297		
280		
214		
182		
175		
100		
-5		
26		
83		
47		
43		
43		
45		
6		
-49		
1		
145		
230		
294		
316		
353		
314		
210		
125		
182		
181		
138		
57		
4		
-24		
-93		
-139		
-53		
102		
143		
162		
178		
193		
149		
121		
243		
380		
380		
368		
312		
285		
212		
72		
-39		
-16		
-20		
-38		
-59		
-38		
-19		
-58		
-74		
19		
172		
225		
237		
277		
365		
357		
268		
284		
358		
334		
262		
192		
195		
139		
22		
-29		
49		
44		
4		
-48		
-46		
-34		
-36		
-27		
89		
224		
303		
350		
391		
410		
337		
252		
196		
251		
214		
150		
78		
44		
-21		
-106		
-159		
-65		
16		
55		
80		
127		
151		
106		
54		
128		
247		
296		
301		
281		
285		
192		
90		
72		
166		
182		
172		
144		
143		
97		
22		
56		
211		
259		
250		
220		
221		
206		
114		
27		
65		
144		
155		
127		
84		
48		
-44		
-145		
-124		
-1		
57		
56		
48		
76		
48		
-9		
-27		
112		
174		
194		
197		
209		
193		
113		
44		
96		
183		
179		
161		
156		
187		
174		
139		
244		
483		
563		
575		
567		
561		
467		
299		
163		
190		
141		
40		
-19		
-64		
-110		
-210		
-236		
-123		
36		
112		
131		
129		
121		
81		
19		
45		
123		
124		
144		
145		
159		
103		
-5		
-57		
37		
79		
66		
50		
73		
93		
31		
-13		
95		
234		
302		
328		
330		
323		
237		
155		
165		
264		
273		
266		
244		
236		
183		
118		
49		
93		
104		
56		
32		
31		
13		
-63		
-122		
-26		
125		
208		
278		
330		
424		
417		
302		
283		
380		
355		
301		
221		
142		
33		
-103		
-169		
-46		
16		
33		
52		
47		
52		
-20		
-56		
58		
196		
297		
390		
378		
360		
265		
157		
132		
166		
110		
28		
-46		
-69		
-78		
-144		
-174		
-44		
39		
88		
151		
198		
208		
163		
117		
164		
252		
265		
217		
173		
160		
101		
29		
54		
183		
210		
252		
269		
295		
275		
204		
202		
321		
354		
325		
292		
305		
293		
170		
70		
68		
128		
95		
21		
-8		
-11		
-24		
-71		
-45		
76		
98		
101		
119		
169		
150		
89		
47		
141		
181		
169		
122		
86		
87		
51		
6		
26		
96		
102		
105		
93		
115		
90		
28		
40		
152		
214		
256		
332		
437		
413		
318		
244		
275		
285		
249		
195		
171		
149		
83		
-21		
8		
75		
36		
-3		
-9		
96		
300		
404		
376		
471		
437		
336		
213		
100		
11		
-120		
-175		
-84		
-33		
-67		
-84		
-88		
-88		
-136		
-181		
-45		
169		
291		
310		
318		
305		
221		
82		
43		
137		
164		
160		
141		
173		
174		
135		
119		
253		
332		
328		
301		
296		
236		
111		
15		
23		
83		
29		
-51		
-108		
-112		
-141		
-194		
-95		
130		
201		
241		
270		
275		
241		
140		
41		
92		
98		
56		
24		
20		
15		
-53		
-93		
18		
195		
276		
331		
389		
446		
423		
346		
346		
449		
442		
368		
345		
382		
370		
278		
179		
239		
227		
168		
141		
153		
206		
162		
56		
73		
140		
190		
193		
123		
86		
-81		
-243		
-282		
-214		
-215		
-271		
-309		
-287		
-275		
-244		
-194		
-5		
146		
189		
232		
275		
309		
270		
195		
248		
326		
271		
214		
160		
171		
129		
59		
86		
244		
359		
430		
500		
640		
716		
597		
439		
402		
340		
188		
28		
-96		
-189		
-292		
-417		
-364		
-250		
-214		
-162		
-98		
-10		
39		
27		
68		
236		
288		
289		
281		
332		
348		
244		
145		
195		
191		
148		
117		
137		
162		
137		
185		
324		
440		
442		
419		
418		
406		
305		
243		
299		
449		
415		
266		
126		
0		
-122		
-261		
-363		
-312		
-291		
-311		
-330		
-263		
-158		
-111		
-86		
32		
181		
253		
276		
303		
351		
368		
418		
482		
575		
558		
484		
360		
285		
160		
-22		
-126		
-29		
90		
307		
517		
564		
507		
336		
178		
153		
196		
99		
-13		
-123		
-264		
-441		
-651		
-677		
-538		
-426		
-289		
-165		
-5		
86		
133		
195		
346		
441		
488		
520		
555		
491		
360		
227		
228		
290		
266		
269		
299		
314		
216		
75		
22		
92		
103		
112		
181		
261		
240		
122		
96		
277		
356		
342		
299		
245		
152		
5		
-128		
-103		
-7		
21		
4		
22		
158		
208		
189		
179		
254		
244		
184		
133		
81		
-31		
-162		
-274		
-220		
-135		
-47		
54		
182		
302		
278		
218		
277		
422		
479		
508		
499		
407		
263		
84		
36		
87		
42		
-23		
-79		
-95		
-137		
-210		
-216		
18		
247		
343		
360		
360		
314		
222		
125		
124		
144		
78		
-44		
-124		
-118		
-134		
-104		
22		
235		
368		
474		
472		
444		
370		
261		
135		
163		
170		
86		
16		
-18		
30		
41		
25		
143		
248		
256		
207		
133		
119		
78		
39		
85		
226		
264		
248		
197		
186		
90		
-36		
-98		
-4		
75		
64		
73		
111		
168		
145		
115		
220		
305		
284		
259		
219		
227		
177		
67		
33		
121		
117		
129		
135		
158		
156		
58		
-13		
52		
97		
100		
85		
58		
30		
-13		
-28		
108		
251		
320		
365		
341		
343		
223		
129		
110		
176		
184		
129		
68		
60		
36		
-15		
-39		
40		
124		
183		
269		
360		
398		
331		
238		
237		
271		
254		
196		
103		
38		
-106		
-244		
-226		
-71		
23		
89		
144		
211		
221		
191		
157		
249		
330		
365		
390		
350		
255		
98		
-10		
1		
57		
36		
-34		
-60		
-60		
-70		
-61		
-17		
111		
129		
166		
150		
160		
217		
213		
189		
328		
426		
390		
326		
283		
252		
153		
0		
-53		
-12		
-41		
-27		
-29		
9		
-4		
-44		
11		
127		
158		
161		
155		
210		
250		
236		
211		
242		
249		
196		
167		
168		
157		
121		
86		
156		
266		
251		
223		
215		
228		
185		
92		
76		
177		
189		
174		
138		
110		
76		
-4		
-59		
0		
14		
13		
44		
78		
124		
106		
65		
121		
223		
229		
244		
271		
288		
221		
117		
105		
214		
251		
245		
202		
188		
149		
64		
4		
53		
117		
104		
68		
70		
78		
47		
4		
68		
186		
236		
249		
245		
284		
243		
159		
223		
376		
340		
232		
110		
42		
-62		
-214		
-287		
-185		
-71		
89		
251		
346		
384		
329		
257		
256		
252		
156		
51		
-62		
-56		
-48		
-69		
-65		
-14		
-27		
-8		
8		
90		
126		
113		
121		
236		
310		
297		
303		
314		
345		
266		
184		
199		
208		
173		
169		
150		
148		
148		
141		
207		
318		
348		
307		
180		
101		
1		
-92		
-97		
-7		
37		
49		
38		
72		
80		
60		
35		
92		
195		
233		
261		
314		
390		
326		
238		
178		
187		
145		
133		
84		
10		
-29		
-84		
-65		
78		
137		
125		
107		
117		
142		
134		
118		
145		
215		
203		
180		
132		
122		
141		
235		
358		
465		
489		
421		
284		
146		
-37		
-238		
-380		
-307		
-167		
-86		
-33		
16		
95		
127		
150		
252		
345		
362		
364		
350		
330		
220		
71		
-2		
60		
81		
95		
69		
63		
40		
-20		
-51		
42		
159		
185		
222		
271		
297		
258		
219		
265		
310		
285		
245		
172		
98		
-5		
-102		
-90		
22		
40		
96		
148		
212		
217		
210		
214		
245		
294		
299		
280		
168		
79		
24		
-16		
93		
180		
148		
89		
41		
5		
-88		
-143		
-75		
179		
341		
367		
337		
342		
347		
296		
213		
194		
147		
68		
-7		
-57		
-64		
-93		
-67		
13		
140		
174		
131		
66		
61		
33		
-40		
-23		
102		
206		
285		
340		
368		
352		
297		
272		
381		
408		
337		
215		
123		
118		
57		
-7		
6		
44		
46		
56		
32		
-12		
-94		
-174		
-123		
74		
186		
271		
350		
422		
409		
274		
126		
127		
135		
98		
94		
89		
10		
-75		
-126		
-53		
79		
140		
176		
165		
166		
103		
41		
60		
191		
305		
376		
395		
419		
379		
260		
101		
68		
84		
76		
88		
57		
14		
-52		
-102		
-25		
105		
192		
235		
215		
232		
191		
151		
186		
265		
249		
235		
181		
137		
103		
44		
-4		
111		
200		
193		
183		
196		
215		
161		
93		
94		
128		
86		
43		
21		
92		
93		
69		
82		
167		
217		
238		
257		
266		
281		
218		
106		
81		
122		
131		
125		
137		
39		
-25		
-66		
-40		
68		
101		
96		
107		
149		
144		
110		
93		
204		
243		
236		
222		
235		
241		
194		
125		
134		
174		
147		
97		
99		
127		
115		
55		
85		
134		
92		
72		
66		
110		
69		
-7		
3		
123		
180		
181		
187		
208		
211		
156		
109		
168		
222		
229		
191		
177		
161		
103		
52		
101		
182		
211		
211		
208		
223		
181		
129		
121		
177		
152		
166		
150		
119		
54		
-8		
-37		
55		
144		
146		
156		
164		
191		
137		
78		
122		
206		
212		
198		
187		
214		
187		
96		
85		
178		
187		
163		
146		
163		
150		
66		
31		
104		
148		
150		
135		
132		
163		
141		
72		
78		
138		
125		
85		
81		
135		
121		
45		
33		
119		
128		
105		
96		
115		
106		
60		
42		
146		
228		
263		
262		
230		
206		
123		
43		
39		
61		
53		
85		
118		
155		
145		
137		
163		
249		
277		
284		
236		
190		
133		
57		
37		
110		
164		
174		
166		
152		
159		
123		
47		
36		
129		
182		
220		
208		
198		
139		
46		
42		
129		
172		
170		
157		
174		
161		
117		
71		
133		
191		
189		
199		
206		
205		
172		
111		
118		
144		
106		
85		
69		
60		
6		
-52		
-43		
79		
123		
166		
175		
168		
140		
65		
33		
105		
178		
183		
182		
183		
181		
144		
80		
122		
198		
182		
170		
161		
205		
180		
135		
131		
188		
166		
122		
124		
139		
107		
43		
-4		
36		
107		
114		
132		
169		
187		
131		
56		
89		
172		
188		
198		
206		
215		
186		
119		
98		
176		
180		
169		
140		
144		
130		
72		
42		
109		
173		
182		
180		
181		
183		
131		
58		
70		
155		
174		
157		
145		
169		
140		
81		
51		
135		
187		
183		
188		
227		
227		
165		
111		
183		
225		
188		
134		
90		
98		
89		
45		
68		
152		
150		
151		
147		
162		
120		
32		
14		
107		
148		
159		
165		
198		
210		
146		
114		
176		
190		
136		
90		
82		
69		
23		
-25		
8		
99		
124		
156		
166		
185		
155		
80		
60		
164		
200		
213		
230		
258		
282		
240		
175		
205		
221		
158		
94		
72		
62		
0		
-44		
30		
130		
138		
137		
126		
135		
101		
37		
32		
132		
176		
194		
190		
208		
215		
152		
108		
167		
230		
232		
203		
192		
174		
91		
18		
48		
133		
133		
140		
161		
183		
150		
43		
-6		
74		
94		
119		
115		
126		
127		
66		
37		
125		
189		
178		
162		
139		
138		
84		
36		
68		
149		
156		
129		
128		
145		
117		
69		
62		
161		
214		
239		
248		
278		
244		
164		
92		
131		
166		
150		
155		
149		
156		
109		
44		
40		
101		
111		
121		
113		
137		
113		
59		
66		
185		
266		
317		
336		
342		
292		
189		
114		
122		
117		
69		
15		
-21		
-15		
-25		
-67		
-25		
78		
113		
147		
156		
199		
202		
140		
112		
198		
213		
202		
184		
178		
153		
106		
81		
170		
257		
237		
190		
160		
153		
126		
53		
89		
165		
131		
97		
45		
45		
26		
-22		
-14		
106		
152		
144		
146		
168		
161		
110		
64		
131		
233		
250		
263		
289		
287		
239		
145		
137		
178		
139		
62		
-7		
17		
23		
-1		
14		
126		
171		
198		
179		
189		
200		
158		
120		
192		
271		
279		
271		
266		
223		
129		
53		
40		
101		
96		
73		
42		
36		
-23		
-92		
-89		
35		
103		
97		
111		
132		
127		
75		
19		
113		
212		
225		
212		
211		
220		
170		
89		
108		
230		
263		
259		
248		
239		
180		
75		
20		
114		
184		
189		
149		
140		
124		
52		
-5		
98		
197		
210		
192		
195		
197		
129		
44		
84		
222		
268		
269		
239		
255		
205		
116		
80		
176		
195		
138		
91		
69		
50		
-8		
-55		
27		
141		
168		
164		
187		
216		
203		
119		
140		
256		
261		
233		
195		
190		
143		
62		
23		
114		
146		
124		
90		
97		
65		
-7		
-62		
12		
134		
152		
146		
157		
172		
145		
86		
130		
247		
239		
219		
199		
212		
169		
92		
68		
169		
217		
191		
152		
141		
110		
32		
-36		
24		
103		
125		
125		
124		
130		
82		
13		
50		
168		
212		
217		
203		
221		
173		
109		
92		
209		
268		
265		
247		
240		
215		
118		
12		
83		
166		
110		
76		
66		
54		
-1		
-68		
-24		
105		
145		
153		
146		
163		
152		
88		
75		
198		
249		
244		
218		
219		
174		
81		
12		
83		
141		
121		
84		
90		
101		
49		
-10		
25		
161		
187		
198		
192		
207		
171		
99		
71		
192		
253		
245		
235		
222		
210		
144		
99		
168		
241		
226		
180		
168		
155		
87		
-12		
-16		
72		
88		
103		
122		
163		
145		
85		
72		
204		
259		
239		
209		
198		
186		
118		
74		
157		
238		
245		
225		
225		
241		
181		
87		
94		
186		
170		
116		
45		
23		
-28		
-106		
-120		
20		
99		
109		
126		
146		
136		
57		
6		
95		
193		
204		
206		
190		
186		
139		
72		
112		
222		
239		
214		
176		
180		
128		
42		
2		
107		
171		
163		
146		
170		
172		
107		
27		
100		
205		
204		
200		
202		
202		
129		
9		
-3		
99		
122		
120		
123		
149		
140		
95		
123		
292		
375		
376		
346		
326		
276		
169		
59		
105		
156		
113		
79		
48		
33		
-39		
-108		
-98		
18		
58		
76		
90		
135		
133		
69		
48		
160		
248		
245		
248		
269		
240		
159		
76		
136		
236		
251		
215		
201		
191		
155		
75		
82		
182		
179		
152		
99		
101		
41		
-67		
-98		
20		
71		
81		
97		
135		
155		
89		
28		
104		
206		
225		
195		
184		
173		
98		
-1		
26		
158		
188		
183		
169		
183		
135		
61		
28		
163		
245		
227		
205		
210		
187		
121		
69		
156		
243		
247		
219		
198		
188		
100		
-12		
-5		
94		
121		
118		
99		
127		
88		
30		
-8		
91		
187		
217		
216		
245		
249		
193		
114		
173		
288		
289		
248		
219		
207		
146		
56		
52		
164		
166		
105		
60		
48		
12		
-67		
-100		
52		
166		
220		
236		
243		
238		
137		
43		
97		
171		
152		
103		
76		
91		
56		
-26		
2		
159		
172		
165		
158		
169		
144		
66		
38		
156		
241		
222		
198		
203		
193		
139		
52		
143		
288		
337		
330		
304		
276		
196		
75		
64		
161		
146		
113		
79		
74		
21		
-78		
-137		
-17		
50		
40		
47		
64		
78		
34		
18		
137		
267		
283		
260		
227		
215		
147		
42		
37		
174		
236		
219		
229		
236		
200		
139		
85		
209		
303		
291		
263		
288		
307		
256		
145		
190		
274		
260		
229		
205		
153		
60		
-53		
-43		
65		
53		
27		
-27		
-12		
-52		
-133		
-133		
17		
159		
254		
303		
359		
356		
272		
170		
197		
255		
205		
134		
64		
-13		
-133		
-242		
-218		
-54		
32		
64		
108		
190		
204		
148		
121		
280		
352		
331		
274		
248		
248		
232		
186		
239		
332		
300		
236		
148		
76		
-41		
-176		
-192		
-61		
-36		
-33		
-13		
0		
-21		
-89		
-91		
74		
203		
247		
254		
266		
257		
185		
106		
169		
245		
241		
194		
186		
209		
162		
86		
100		
240		
270		
245		
199		
184		
129		
50		
38		
174		
252		
241		
251		
305		
319		
244		
166		
229		
285		
224		
133		
76		
36		
-46		
-142		
-120		
39		
94		
65		
24		
62		
47		
-29		
-41		
127		
229		
222		
182		
172		
150		
63		
-22		
57		
171		
217		
302		
357		
412		
360		
237		
219		
334		
347		
264		
181		
114		
34		
-80		
-148		
-52		
32		
23		
-13		
28		
43		
47		
27		
138		
295		
291		
241		
209		
181		
86		
-51		
-66		
43		
71		
29		
16		
57		
56		
3		
29		
285		
412		
425		
430		
458		
424		
307		
168		
162		
241		
199		
127		
85		
56		
-16		
-136		
-150		
-2		
47		
38		
44		
98		
91		
17		
-14		
121		
222		
234		
272		
312		
293		
188		
79		
166		
280		
287		
238		
181		
140		
32		
-76		
-29		
147		
188		
213		
240		
347		
393		
314		
274		
354		
401		
343		
229		
137		
27		
-104		
-202		
-133		
-49		
-52		
-74		
-81		
-8		
-15		
-29		
98		
313		
343		
269		
186		
140		
82		
-25		
-74		
114		
283		
291		
240		
195		
121		
-10		
-165		
-112		
-20		
-7		
7		
47		
100		
73		
29		
86		
357		
527		
634		
645		
614		
514		
296		
162		
144		
64		
-32		
-123		
-152		
-162		
-190		
-250		
-162		
25		
84		
101		
163		
221		
215		
197		
316		
590		
665		
563		
461		
364		
233		
79		
-39		
24		
23		
-23		
-90		
-112		
-144		
-227		
-243		
-91		
85		
140		
156		
195		
228		
174		
63		
68		
203		
243		
274		
314		
344		
282		
145		
51		
170		
230		
243		
269		
310		
285		
227		
147		
173		
236		
225		
174		
53		
7		
-123		
-292		
-295		
-118		
11		
108		
186		
239		
214		
149		
65		
146		
182		
122		
72		
60		
25		
-44		
-106		
31		
245		
380		
510		
553		
553		
427		
227		
122		
148		
88		
1		
-57		
-85		
-66		
-28		
-6		
156		
317		
314		
279		
268		
212		
130		
28		
78		
128		
61		
-12		
-48		
-5		
-13		
-64		
27		
306		
461		
469		
396		
314		
175		
33		
-31		
51		
105		
119		
104		
91		
76		
20		
-17		
59		
206		
263		
239		
190		
158		
108		
27		
95		
289		
317		
310		
285		
243		
144		
3		
-88		
31		
120		
121		
97		
130		
153		
87		
32		
121		
254		
260		
219		
184		
158		
65		
-59		
-68		
43		
49		
31		
27		
36		
29		
-4		
76		
334		
462		
479		
412		
399		
382		
259		
125		
125		
140		
48		
-23		
-69		
-5		
36		
37		
84		
230		
257		
222		
199		
174		
100		
-25		
-89		
56		
206		
235		
220		
209		
182		
110		
-2		
52		
94		
57		
45		
51		
73		
69		
123		
215		
366		
360		
331		
275		
275		
258		
177		
65		
64		
69		
51		
45		
41		
47		
-8		
-91		
-28		
82		
90		
125		
125		
134		
109		
55		
111		
261		
267		
224		
160		
125		
72		
-25		
-84		
-7		
41		
59		
93		
137		
164		
128		
88		
157		
279		
316		
304		
287		
305		
313		
283		
280		
329		
291		
233		
159		
130		
58		
-21		
-48		
95		
228		
253		
255		
238		
213		
116		
6		
28		
76		
54		
9		
-22		
-31		
-63		
-139		
-122		
50		
184		
355		
431		
477		
434		
303		
205		
248		
236		
136		
-13		
-98		
-140		
-189		
-177		
-18		
212		
279		
319		
314		
374		
376		
256		
182		
221		
185		
113		
39		
19		
-8		
-57		
-69		
21		
115		
106		
122		
144		
115		
43		
-28		
73		
198		
217		
202		
139		
94		
6		
-71		
1		
209		
324		
393		
396		
431		
422		
328		
257		
264		
184		
54		
-40		
-57		
12		
75		
129		
223		
287		
214		
181		
140		
133		
35		
-111		
-132		
-48		
-9		
56		
124		
176		
202		
146		
108		
180		
193		
152		
88		
28		
-7		
-83		
-91		
36		
178		
225		
253		
272		
273		
211		
82		
-3		
33		
91		
162		
213		
270		
249		
187		
133		
207		
219		
146		
131		
140		
194		
172		
146		
259		
384		
402		
335		
233		
123		
6		
-129		
-145		
-61		
-48		
29		
95		
145		
189		
243		
288		
404		
451		
376		
239		
112		
12		
-89		
-182		
-130		
-20		
15		
36		
67		
98		
71		
19		
-12		
73		
109		
138		
148		
195		
205		
167		
166		
274		
360		
354		
354		
364		
324		
278		
233		
255		
293		
227		
138		
60		
-36		
-189		
-283		
-277		
-127		
-5		
118		
211		
321		
331		
234		
147		
158		
210		
224		
240		
269		
228		
89		
-89		
-71		
41		
49		
37		
41		
101		
119		
146		
236		
401		
458		
441		
370		
293		
175		
3		
-152		
-146		
-116		
-80		
-8		
76		
120		
82		
19		
133		
278		
259		
235		
192		
147		
126		
111		
95		
140		
100		
71		
37		
30		
32		
-13		
-50		
53		
121		
109		
138		
177		
196		
190		
197		
339		
578		
676		
630		
536		
390		
152		
-82		
-227		
-252		
-261		
-238		
-170		
-71		
-7		
13		
63		
232		
314		
350		
356		
357		
342		
275		
264		
426		
594		
564		
492		
332		
103		
-147		
-384		
-450		
-340		
-229		
-123		
-61		
20		
100		
168		
239		
368		
430		
409		
332		
220		
142		
72		
-29		
25		
173		
212		
216		
149		
121		
102		
57		
68		
135		
115		
79		
61		
57		
7		
-83		
-132		
-28		
98		
120		
129		
156		
198		
210		
247		
431		
591		
580		
478		
327		
204		
55		
-92		
-176		
-146		
-101		
-35		
42		
140		
196		
174		
143		
158		
148		
132		
138		
198		
304		
288		
190		
240		
284		
196		
83		
-62		
-79		
-71		
-69		
-16		
109		
186		
216		
202		
218		
203		
148		
99		
192		
292		
291		
272		
198		
105		
-4		
-53		
28		
144		
163		
177		
201		
245		
252		
181		
150		
214		
194		
122		
35		
-8		
-48		
-60		
-21		
114		
221		
297		
374		
454		
492		
382		
200		
106		
92		
-41		
-140		
-173		
-130		
-93		
-120		
-69		
105		
184		
219		
237		
228		
200		
104		
39		
47		
34		
28		
54		
106		
138		
123		
129		
215		
293		
297		
274		
287		
336		
294		
179		
92		
142		
130		
52		
-2		
-29		
-19		
3		
44		
160		
212		
214		
193		
207		
215		
163		
81		
124		
202		
179		
133		
76		
90		
92		
71		
121		
300		
360		
320		
257		
211		
124		
1		
-15		
79		
123		
151		
145		
135		
114		
56		
4		
35		
111		
117		
107		
94		
110		
82		
65		
108		
215		
245		
236		
214		
192		
130		
40		
-15		
53		
138		
135		
149		
203		
266		
278		
239		
270		
319		
295		
249		
185		
124		
41		
-96		
-104		
13		
67		
143		
167		
198		
183		
105		
20		
27		
61		
75		
118		
167		
215		
210		
157		
192		
267		
259		
239		
196		
147		
92		
14		
-20		
85		
145		
157		
195		
250		
262		
207		
138		
167		
171		
156		
142		
146		
162		
89		
20		
63		
142		
138		
91		
59		
78		
28		
-29		
-19		
113		
164		
163		
178		
193		
202		
146		
125		
210		
262		
243		
204		
165		
150		
109		
59		
107		
177		
174		
177		
163		
193		
170		
111		
97		
134		
129		
99		
85		
88		
72		
16		
-3		
106		
192		
203		
174		
166		
166		
112		
47		
105		
203		
214		
214		
189		
187		
126		
74		
76		
144		
166		
182		
179		
211		
191		
106		
28		
65		
137		
132		
112		
110		
112		
88		
44		
72		
164		
196		
187		
166		
197		
174		
130		
142		
225		
219		
180		
141		
172		
158		
68		
17		
62		
110		
87		
73		
65		
54		
23		
-1		
65		
178		
189		
198		
193		
180		
144		
93		
87		
179		
225		
228		
224		
207		
159		
81		
30		
96		
137		
161		
178		
201		
208		
152		
73		
79		
131		
125		
130		
111		
121		
97		
40		
27		
148		
213		
233		
233		
224		
196		
102		
66		
126		
153		
171		
179		
158		
124		
34		
-38		
31		
135		
149		
144		
135		
127		
84		
23		
5		
96		
149		
146		
146		
165		
146		
93		
53		
138		
190		
193		
188		
203		
209		
156		
83		
129		
226		
218		
196		
172		
173		
130		
75		
53		
134		
157		
126		
103		
117		
119		
78		
36		
106		
174		
185		
188		
193		
214		
195		
149		
182		
247		
232		
179		
120		
85		
26		
-17		
22		
140		
181		
208		
209		
222		
186		
94		
34		
87		
129		
105		
93		
75		
79		
31		
15		
97		
189		
203		
201		
187		
209		
175		
88		
78		
157		
183		
164		
153		
166		
133		
83		
58		
131		
177		
171		
152		
136		
129		
94		
38		
90		
176		
177		
152		
98		
98		
58		
18		
38		
179		
230		
226		
219		
220		
190		
101		
67		
163		
202		
179		
146		
118		
101		
4		
-59		
-4		
112		
147		
165		
161		
183		
170		
117		
113		
190		
224		
220		
208		
195		
148		
80		
45		
126		
193		
196		
187		
190		
186		
137		
84		
128		
203		
167		
129		
74		
97		
90		
34		
34		
113		
164		
187		
190		
206		
183		
116		
72		
156		
256		
310		
310		
310		
280		
186		
82		
42		
63		
30		
-12		
-7		
70		
62		
9		
2		
109		
146		
145		
138		
137		
129		
76		
54		
158		
261		
277		
262		
255		
253		
186		
83		
79		
116		
78		
28		
23		
67		
47		
-6		
-10		
108		
171		
179		
172		
191		
197		
155		
123		
233		
283		
273		
247		
201		
166		
88		
15		
43		
158		
159		
146		
130		
126		
75		
3		
-20		
88		
152		
161		
182		
227		
240		
206		
187		
262		
288		
277		
250		
193		
149		
21		
-116		
-100		
3		
27		
28		
31		
69		
67		
36		
60		
211		
284		
277		
260		
249		
216		
115		
24		
73		
133		
135		
160		
184		
191		
125		
45		
98		
206		
223		
233		
201		
186		
144		
56		
53		
146		
171		
152		
125		
109		
80		
17		
-25		
54		
133		
155		
146		
148		
145		
103		
19		
44		
130		
152		
173		
156		
159		
105		
34		
28		
164		
226		
244		
244		
257		
238		
166		
111		
186		
243		
213		
190		
150		
125		
31		
-44		
3		
85		
103		
100		
101		
137		
113		
51		
69		
212		
247		
240		
219		
228		
202		
124		
64		
152		
232		
232		
189		
140		
122		
69		
33		
99		
241		
257		
256		
217		
195		
124		
-10		
-75		
-4		
35		
45		
63		
99		
108		
65		
29		
129		
214		
224		
240		
258		
268		
193		
115		
152		
244		
233		
210		
166		
139		
69		
-26		
-52		
44		
118		
121		
117		
139		
143		
115		
75		
175		
252		
244		
224		
210		
209		
134		
31		
59		
147		
142		
139		
126		
152		
124		
59		
36		
131		
208		
217		
208		
225		
197		
111		
38		
115		
203		
206		
175		
148		
116		
35		
-52		
-15		
87		
101		
91		
103		
145		
119		
54		
27		
158		
210		
232		
219		
239		
233		
186		
153		
225		
310		
278		
233		
202		
174		
82		
-37		
-33		
43		
37		
31		
27		
59		
28		
-48		
-44		
84		
162		
185		
192		
245		
248		
183		
117		
218		
312		
321		
305		
262		
229		
122		
-13		
3		
112		
107		
110		
85		
90		
54		
4		
15		
122		
187		
183		
171		
181		
171		
97		
32		
117		
198		
198		
201		
196		
208		
157		
69		
103		
195		
190		
162		
134		
141		
102		
-5		
-54		
37		
96		
111		
118		
158		
159		
108		
84		
198		
270		
251		
232		
223		
223		
135		
44		
86		
182		
164		
170		
170		
178		
125		
35		
25		
142		
204		
203		
167		
151		
123		
32		
-32		
54		
149		
192		
191		
174		
151		
89		
29		
46		
170		
187		
200		
236		
267		
249		
159		
129		
223		
205		
169		
144		
136		
88		
-14		
-67		
60		
189		
207		
203		
164		
130		
41		
-55		
-26		
73		
93		
102		
115		
144		
117		
44		
15		
128		
206		
239		
252		
270		
220		
124		
46		
117		
192		
205		
193		
190		
218		
152		
54		
85		
235		
267		
253		
248		
286		
245		
126		
56		
137		
169		
122		
92		
91		
64		
7		
-69		
25		
118		
117		
95		
60		
66		
10		
-46		
11		
133		
180		
200		
217		
310		
342		
271		
234		
302		
327		
313		
248		
214		
146		
59		
-2		
49		
104		
92		
66		
61		
49		
-34		
-112		
-55		
93		
118		
106		
63		
49		
-3		
-95		
-94		
46		
126		
170		
196		
222		
203		
129		
88		
208		
307		
322		
309		
297		
299		
226		
121		
103		
151		
134		
103		
70		
76		
37		
-3		
45		
232		
297		
302		
276		
269		
244		
149		
66		
141		
260		
279		
295		
330		
347		
261		
134		
179		
302		
314		
283		
195		
139		
60		
-84		
-162		
-85		
-96		
-112		
-145		
-132		
-117		
-170		
-217		
-116		
4		
34		
106		
177		
219		
162		
90		
134		
275		
284		
252		
214		
196		
132		
37		
39		
160		
215		
215		
205		
227		
227		
144		
69		
184		
303		
327		
303		
258		
236		
138		
5		
12		
127		
159		
194		
221		
266		
215		
117		
73		
153		
219		
228		
195		
222		
215		
133		
23		
67		
118		
98		
98		
78		
97		
49		
-7		
29		
157		
160		
166		
163		
162		
119		
39		
27		
120		
188		
205		
190		
188		
189		
125		
48		
124		
193		
193		
176		
236		
366		
344		
245		
213		
260		
218		
134		
68		
40		
-66		
-196		
-250		
-116		
-10		
-3		
18		
65		
85		
25		
-31		
44		
144		
169		
170		
206		
214		
156		
66		
99		
204		
209		
197		
187		
241		
205		
115		
67		
182		
217		
210		
172		
149		
108		
5		
-55		
15		
139		
212		
304		
325		
333		
274		
212		
245		
334		
313		
238		
174		
115		
57		
-1		
-11		
110		
200		
251		
273		
290		
262		
189		
101		
179		
253		
203		
127		
56		
9		
-89		
-173		
-112		
74		
128		
144		
137		
135		
95		
29		
-1		
72		
146		
229		
299		
388		
374		
214		
34		
44		
59		
10		
-27		
-49		
-49		
-139		
-225		
-142		
100		
186		
253		
292		
294		
263		
161		
107		
174		
218		
239		
222		
198		
149		
23		
-63		
38		
125		
123		
101		
106		
149		
172		
209		
257		
356		
365		
313		
232		
188		
117		
2		
-29		
134		
251		
276		
271		
269		
257		
193		
108		
158		
212		
187		
163		
179		
246		
204		
86		
83		
144		
110		
62		
12		
34		
11		
-61		
-84		
98		
233		
278		
302		
301		
300		
248		
153		
174		
192		
100		
-1		
-91		
-104		
-132		
-226		
-217		
-63		
25		
118		
149		
170		
185		
105		
89		
233		
284		
280		
241		
236		
197		
121		
101		
168		
189		
127		
68		
93		
187		
160		
114		
215		
361		
418		
384		
271		
214		
171		
216		
290		
362		
317		
190		
39		
-53		
-153		
-295		
-375		
-252		
-71		
101		
265		
300		
307		
207		
72		
64		
156		
141		
97		
95		
110		
90		
-44		
-123		
-41		
-23		
25		
61		
144		
218		
222		
169		
221		
236		
190		
150		
203		
340		
362		
335		
393		
645		
763		
647		
490		
334		
101		
-55		
-84		
9		
-15		
-70		
-123		
-123		
-159		
-221		
-246		
-90		
207		
341		
361		
314		
236		
73		
-145		
-164		
-52		
-61		
-6		
52		
70		
102		
53		
14		
109		
134		
126		
99		
106		
97		
43		
39		
129		
280		
384		
392		
384		
349		
207		
41		
-23		
17		
27		
20		
10		
81		
73		
14		
-3		
160		
424		
716		
801		
756		
653		
390		
148		
76		
47		
-72		
-140		
-194		
-204		
-127		
5		
145		
355		
457		
434		
382		
316		
200		
50		
-26		
32		
17		
2		
-54		
-59		
-20		
-47		
-63		
65		
236		
339		
444		
406		
330		
206		
57		
5		
84		
64		
21		
34		
59		
18		
-63		
11		
260		
363		
357		
301		
249		
176		
109		
128		
190		
239		
238		
158		
88		
37		
-37		
-98		
-21		
172		
189		
157		
137		
176		
122		
23		
-22		
101		
185		
110		
24		
12		
-14		
-96		
-153		
-36		
121		
192		
202		
208		
271		
322		
336		
318		
363		
339		
317		
221		
142		
50		
-83		
-159		
-109		
-60		
-18		
62		
137		
182		
131		
68		
148		
239		
260		
286		
368		
401		
277		
128		
100		
227		
285		
296		
279		
259		
194		
54		
-38		
45		
93		
100		
75		
89		
73		
52		
110		
290		
458		
486		
415		
314		
201		
-16		
-252		
-368		
-300		
-275		
-204		
-116		
35		
155		
235		
314		
358		
327		
204		
61		
56		
35		
-18		
-94		
-40		
93		
171		
310		
431		
437		
354		
203		
136		
212		
249		
251		
191		
179		
141		
68		
60		
201		
203		
155		
87		
44		
18		
-92		
-151		
-50		
67		
64		
54		
50		
68		
27		
-19		
57		
278		
395		
422		
407		
437		
424		
287		
174		
155		
116		
41		
14		
80		
115		
81		
14		
100		
142		
110		
96		
69		
83		
75		
66		
115		
263		
327		
328		
276		
241		
144		
1		
-63		
9		
19		
-22		
-9		
58		
149		
217		
235		
295		
390		
384		
319		
268		
251		
162		
6		
-35		
81		
126		
62		
-31		
-96		
-169		
-217		
-221		
-49		
125		
248		
329		
382		
370		
233		
108		
106		
116		
89		
189		
325		
438		
462		
366		
283		
302		
247		
122		
-48		
-144		
-236		
-316		
-334		
-208		
-111		
-14		
133		
297		
420		
398		
356		
438		
549		
504		
393		
238		
177		
81		
-23		
-43		
-31		
-57		
-112		
-129		
-71		
-41		
-20		
49		
228		
343		
376		
343		
284		
206		
55		
-64		
51		
223		
226		
186		
146		
164		
88		
4		
-6		
61		
125		
136		
139		
166		
174		
166		
196		
296		
344		
331		
323		
339		
236		
160		
107		
135		
158		
100		
69		
12		
-46		
-176		
-311		
-290		
-88		
2		
89		
171		
243		
270		
223		
206		
297		
325		
265		
314		
366		
354		
279		
165		
174		
215		
158		
48		
13		
97		
70		
11		
63		
130		
58		
-109		
-277		
-310		
-265		
-170		
-26		
233		
437		
544		
588		
583		
471		
281		
113		
109		
156		
89		
26		
27		
75		
82		
40		
62		
192		
209		
136		
121		
157		
244		
334		
378		
542		
542		
374		
198		
45		
-175		
-371		
-456		
-372		
-213		
-140		
-32		
48		
184		
228		
194		
209		
332		
408		
431		
425		
397		
354		
304		
267		
307		
266		
138		
41		
-26		
-41		
-114		
-165		
-91		
-35		
-29		
21		
111		
179		
174		
174		
270		
393		
347		
207		
65		
23		
12		
-67		
-89		
39		
156		
214		
224		
259		
215		
92		
28		
108		
230		
296		
399		
500		
523		
331		
45		
-25		
47		
38		
4		
-60		
-83		
-151		
-212		
-158		
47		
217		
280		
326		
382		
396		
250		
104		
182		
340		
392		
294		
195		
175		
92		
-9		
-8		
64		
40		
-12		
-57		
-5		
58		
73		
75		
162		
206		
232		
230		
188		
111		
10		
-10		
65		
155		
168		
144		
133		
159		
119		
87		
133		
276		
357		
359		
348		
345		
266		
114		
46		
131		
155		
102		
35		
24		
53		
33		
45		
165		
182		
107		
124		
191		
243		
170		
81		
58		
113		
85		
-2		
-9		
53		
48		
30		
49		
160		
179		
141		
117		
137		
149		
117		
80		
149		
225		
199		
180		
181		
259		
316		
312		
332		
373		
300		
200		
72		
8		
-69		
-139		
-103		
5		
76		
99		
54		
55		
73		
69		
69		
129		
220		
241		
234		
245		
260		
229		
172		
181		
272		
220		
149		
69		
55		
53		
20		
12		
110		
211		
211		
191		
223		
251		
195		
101		
126		
138		
90		
88		
114		
135		
59		
-22		
2		
121		
141		
140		
110		
113		
91		
52		
54		
133		
189		
168		
152		
157		
158		
118		
73		
128		
214		
203		
193		
179		
168		
142		
90		
109		
211		
240		
228		
211		
232		
220		
141		
73		
140		
172		
164		
157		
134		
94		
19		
-38		
37		
145		
163		
177		
177		
180		
121		
51		
62		
144		
151		
144		
137		
159		
141		
85		
48		
117		
177		
180		
161		
162		
175		
159		
137		
189		
275		
250		
230		
215		
203		
107		
-27		
-49		
48		
95		
111		
115		
127		
100		
32		
4		
58		
114		
146		
140		
150		
153		
99		
58		
109		
180		
189		
190		
194		
195		
157		
100		
98		
204		
208		
196		
190		
187		
157		
81		
23		
102		
158		
135		
129		
140		
138		
98		
50		
110		
189		
194		
203		
190		
184		
130		
69		
56		
123		
152		
163		
171		
188		
178		
135		
97		
166		
198		
157		
116		
114		
117		
68		
12		
51		
161		
191		
191		
202		
207		
152		
75		
71		
166		
215		
214		
193		
197		
151		
88		
57		
149		
193		
177		
159		
129		
91		
34		
-10		
56		
159		
163		
163		
157		
171		
139		
53		
23		
86		
106		
120		
131		
174		
159		
104		
95		
195		
234		
203		
167		
149		
143		
104		
58		
89		
174		
146		
132		
140		
146		
97		
31		
44		
125		
150		
148		
137		
150		
135		
80		
70		
195		
279		
291		
270		
245		
198		
98		
-6		
3		
66		
86		
100		
100		
121		
114		
65		
90		
210		
225		
219		
210		
182		
110		
13		
-2		
116		
196		
216		
212		
230		
232		
150		
49		
75		
130		
102		
93		
115		
157		
138		
110		
140		
249		
266		
269		
257		
249		
203		
94		
2		
24		
70		
57		
43		
64		
81		
19		
-64		
-13		
80		
94		
119		
148		
191		
189		
127		
124		
214		
256		
237		
226		
230		
195		
108		
3		
53		
76		
101		
101		
85		
86		
52		
22		
115		
220		
204		
200		
183		
238		
266		
232		
233		
284		
275		
226		
170		
205		
185		
75		
-16		
11		
36		
21		
11		
25		
9		
-71		
-106		
-32		
93		
130		
162		
191		
244		
235		
176		
182		
261		
268		
219		
135		
93		
47		
2		
27		
133		
174		
188		
181		
180		
183		
116		
57		
96		
186		
217		
215		
198		
196		
138		
60		
55		
178		
233		
230		
202		
198		
175		
82		
6		
88		
145		
122		
117		
138		
134		
73		
9		
55		
160		
169		
177		
193		
217		
200		
147		
136		
246		
274		
253		
223		
208		
171		
108		
44		
78		
141		
140		
132		
128		
106		
31		
-33		
1		
78		
107		
112		
123		
147		
107		
31		
42		
147		
217		
236		
207		
215		
177		
104		
46		
156		
244		
275		
271		
260		
241		
148		
49		
51		
131		
113		
78		
55		
60		
19		
-40		
-3		
138		
186		
207		
207		
218		
204		
133		
89		
169		
214		
194		
169		
152		
144		
78		
7		
42		
155		
160		
148		
152		
165		
138		
86		
104		
211		
233		
214		
185		
179		
161		
86		
31		
114		
151		
124		
108		
113		
125		
91		
60		
124		
259		
297		
263		
228		
219		
137		
30		
7		
125		
153		
122		
93		
91		
72		
8		
-40		
50		
93		
61		
39		
40		
49		
6		
-49		
25		
159		
176		
205		
227		
248		
214		
140		
142		
263		
287		
264		
236		
226		
182		
86		
40		
133		
208		
199		
185		
183		
176		
98		
-10		
27		
147		
165		
151		
135		
123		
64		
-12		
-13		
116		
185		
208		
207		
224		
201		
167		
160		
254		
325		
326		
323		
312		
291		
195		
84		
94		
153		
94		
25		
-44		
-80		
-150		
-213		
-165		
-3		
66		
94		
89		
110		
124		
69		
53		
172		
256		
255		
268		
294		
318		
267		
201		
226		
317		
314		
263		
209		
144		
55		
-48		
-50		
80		
108		
115		
101		
124		
120		
50		
19		
128		
214		
228		
226		
214		
196		
97		
5		
42		
137		
174		
210		
225		
252		
216		
140		
124		
215		
264		
241		
193		
170		
89		
-12		
-96		
-10		
69		
88		
104		
123		
144		
93		
50		
115		
249		
263		
256		
240		
227		
157		
51		
43		
159		
192		
166		
134		
114		
90		
18		
-29		
56		
113		
102		
93		
96		
101		
47		
-16		
34		
174		
207		
190		
207		
220		
179		
103		
98		
210		
233		
236		
222		
267		
267		
188		
132		
236		
312		
290		
256		
217		
205		
116		
13		
47		
147		
121		
80		
50		
60		
11		
-92		
-112		
17		
91		
116		
112		
113		
104		
53		
38		
155		
235		
244		
245		
217		
195		
114		
36		
78		
181		
183		
172		
160		
146		
80		
-6		
-17		
101		
165		
190		
185		
205		
186		
105		
40		
155		
222		
191		
169		
144		
189		
163		
118		
171		
269		
288		
290		
278		
288		
228		
105		
51		
101		
89		
23		
-16		
-3		
-44		
-88		
-129		
-38		
69		
98		
132		
223		
330		
292		
218		
269		
348		
321		
279		
211		
161		
47		
-94		
-137		
-16		
26		
29		
28		
45		
46		
-31		
-63		
46		
138		
184		
207		
268		
297		
239		
162		
212		
362		
393		
370		
329		
314		
228		
108		
85		
198		
188		
160		
125		
137		
118		
28		
-21		
88		
166		
170		
142		
116		
102		
-1		
-98		
-100		
1		
56		
60		
84		
122		
76		
7		
11		
153		
193		
199		
179		
174		
138		
27		
-38		
58		
144		
127		
117		
135		
196		
221		
212		
257		
359		
382		
351		
345		
354		
286		
182		
138		
203		
208		
195		
138		
93		
44		
-41		
-104		
19		
98		
67		
46		
44		
85		
88		
49		
73		
179		
198		
211		
198		
202		
133		
17		
-21		
57		
96		
100		
96		
117		
146		
78		
15		
111		
185		
207		
179		
177		
157		
65		
-9		
59		
227		
329		
408		
406		
399		
294		
135		
62		
141		
173		
141		
93		
66		
1		
-93		
-152		
-37		
61		
104		
157		
179		
180		
92		
-19		
22		
123		
178		
322		
396		
398		
342		
189		
106		
184		
152		
107		
28		
-10		
-51		
-123		
-205		
-101		
34		
100		
266		
355		
361		
291		
194		
197		
273		
274		
235		
176		
158		
98		
-36		
-81		
36		
76		
95		
113		
169		
162		
55		
-20		
85		
157		
141		
162		
195		
249		
236		
165		
200		
314		
335		
332		
337		
372		
309		
192		
148		
245		
248		
220		
162		
105		
52		
-74		
-159		
-56		
20		
7		
-14		
20		
130		
180		
159		
219		
314		
312		
275		
212		
201		
124		
13		
-35		
68		
80		
66		
58		
88		
83		
12		
-13		
70		
131		
138		
114		
119		
149		
70		
-32		
-19		
113		
131		
130		
162		
230		
240		
178		
184		
305		
334		
268		
187		
146		
52		
-89		
-199		
-114		
-31		
18		
68		
112		
180		
187		
172		
249		
399		
421		
382		
344		
305		
185		
39		
-52		
33		
50		
69		
112		
233		
328		
347		
350		
413		
465		
393		
284		
186		
168		
120		
1		
-40		
8		
-33		
-110		
-159		
-117		
-80		
-133		
-128		
12		
52		
36		
2		
14		
-12		
-98		
-168		
-32		
114		
153		
199		
238		
253		
180		
96		
139		
269		
305		
336		
356		
376		
326		
228		
230		
374		
434		
398		
342		
280		
165		
22		
-117		
-20		
72		
48		
68		
122		
191		
178		
134		
235		
337		
317		
262		
162		
132		
46		
-78		
-126		
31		
172		
279		
297		
304		
264		
133		
30		
30		
51		
-19		
-89		
-125		
-123		
-190		
-253		
-106		
176		
368		
479		
492		
481		
376		
198		
95		
161		
166		
112		
41		
-11		
-81		
-214		
-303		
-141		
73		
116		
101		
103		
70		
12		
7		
123		
292		
337		
330		
314		
326		
220		
72		
-7		
110		
186		
200		
209		
228		
222		
122		
50		
159		
283		
339		
380		
366		
304		
157		
9		
-1		
91		
124		
126		
110		
147		
143		
81		
99		
266		
331		
332		
310		
320		
284		
142		
23		
50		
55		
20		
-24		
-45		
-32		
-71		
-129		
-104		
17		
82		
122		
155		
230		
235		
201		
198		
325		
344		
291		
201		
144		
93		
-8		
-28		
118		
213		
180		
148		
121		
121		
95		
60		
94		
192		
194		
171		
168		
207		
160		
47		
-17		
31		
60		
98		
122		
178		
189		
157		
117		
172		
266		
285		
256		
219		
166		
33		
-114		
-82		
149		
295		
313		
296		
276		
191		
89		
89		
336		
542		
507		
362		
249		
96		
-72		
-224		
-181		
-103		
-112		
-129		
-146		
-137		
-137		
-137		
-22		
168		
221		
228		
188		
180		
135		
103		
193		
434		
560		
606		
561		
462		
349		
172		
29		
34		
32		
-45		
-71		
-41		
84		
151		
131		
163		
239		
234		
171		
67		
-27		
-141		
-294		
-368		
-204		
-73		
48		
152		
286		
374		
314		
227		
276		
304		
207		
117		
48		
-15		
-122		
-204		
-137		
43		
171		
249		
269		
316		
301		
229		
235		
380		
370		
338		
299		
301		
278		
174		
72		
106		
122		
12		
-25		
-37		
3		
-30		
-91		
-19		
130		
184		
210		
206		
209		
180		
125		
144		
319		
405		
402		
379		
380		
317		
192		
53		
5		
52		
59		
43		
36		
32		
-24		
-75		
-29		
133		
206		
219		
223		
201		
112		
-34		
-98		
33		
143		
235		
266		
285		
255		
185		
153		
241		
296		
259		
206		
128		
65		
-65		
-169		
-144		
-27		
3		
39		
63		
137		
179		
158		
187		
300		
334		
305		
285		
246		
202		
163		
149		
217		
239		
171		
110		
27		
-59		
-104		
-136		
-80		
45		
113		
138		
145		
186		
150		
65		
31		
157		
197		
206		
198		
221		
233		
177		
115		
196		
297		
289		
271		
266		
267		
194		
87		
63		
115		
86		
41		
-3		
8		
30		
36		
59		
202		
247		
267		
268		
283		
282		
185		
65		
58		
120		
75		
54		
15		
-12		
-47		
-45		
121		
328		
436		
465		
431		
397		
279		
91		
-38		
-28		
-49		
-41		
-38		
8		
70		
48		
33		
89		
169		
194		
158		
157		
179		
132		
56		
112		
270		
314		
304		
280		
292		
229		
101		
-38		
-38		
-24		
-67		
-100		
-57		
25		
51		
99		
285		
388		
357		
314		
251		
176		
32		
-96		
-85		
61		
114		
146		
227		
337		
406		
374		
319		
390		
336		
157		
-25		
-139		
-210		
-311		
-296		
-137		
31		
106		
135		
196		
244		
243		
195		
200		
322		
381		
389		
339		
286		
181		
55		
1		
96		
96		
57		
48		
66		
102		
38		
-11		
89		
158		
153		
172		
201		
232		
207		
178		
211		
279		
278		
247		
181		
127		
11		
-103		
-133		
29		
133		
156		
150		
165		
188		
155		
85		
108		
202		
236		
277		
299		
310		
260		
130		
87		
109		
57		
-12		
-68		
4		
31		
17		
100		
293		
379		
393		
325		
238		
93		
-98		
-197		
-159		
-19		
109		
200		
277		
338		
326		
241		
196		
259		
241		
187		
110		
20		
-86		
-158		
-175		
-75		
24		
105		
206		
288		
333		
328		
283		
300		
253		
82		
-23		
-29		
-29		
-87		
-194		
-194		
-52		
1		
46		
101		
168		
227		
266		
284		
393		
444		
401		
320		
235		
122		
4		
-20		
87		
233		
314		
344		
394		
405		
310		
223		
221		
230		
173		
173		
170		
172		
69		
-120		
-276		
-217		
-125		
-2		
132		
223		
288		
267		
241		
255		
248		
187		
159		
192		
263		
245		
157		
107		
66		
-60		
-145		
-156		
-72		
-17		
10		
95		
283		
380		
378		
345		
293		
177		
-29		
-162		
-91		
69		
107		
106		
126		
149		
146		
142		
215		
297		
256		
188		
147		
122		
101		
109		
138		
303		
427		
481		
492		
425		
254		
-59		
-364		
-399		
-236		
-89		
-5		
56		
155		
138		
64		
48		
140		
223		
258		
261		
275		
224		
74		
-59		
-1		
144		
255		
269		
282		
276		
187		
38		
3		
22		
47		
113		
176		
218		
137		
46		
30		
101		
119		
101		
119		
192		
191		
121		
49		
106		
172		
203		
222		
204		
169		
110		
42		
85		
172		
190		
229		
271		
277		
269		
266		
293		
334		
285		
239		
148		
32		
-100		
-193		
-198		
-88		
-25		
-18		
-19		
-1		
59		
89		
90		
172		
263		
273		
272		
267		
256		
195		
125		
132		
191		
191		
223		
227		
241		
227		
188		
181		
217		
198		
157		
85		
24		
28		
43		
27		
68		
147		
135		
76		
45		
60		
52		
37		
99		
217		
228		
217		
238		
285		
274		
216		
174		
244		
243		
178		
130		
83		
44		
-43		
-80		
-27		
23		
45		
66		
101		
183		
209		
188		
203		
261		
245		
153		
65		
41		
30		
29		
33		
116		
181		
210		
150		
112		
103		
65		
41		
149		
270		
283		
274		
256		
273		
211		
108		
53		
111		
125		
84		
41		
35		
50		
22		
5		
124		
195		
226		
222		
206		
206		
179		
146		
222		
274		
256		
203		
160		
147		
62		
-24		
-8		
106		
136		
134		
132		
182		
176		
83		
-5		
64		
109		
116		
127		
137		
147		
89		
36		
85		
181		
211		
212		
218		
226		
188		
104		
85		
169		
184		
178		
170		
187		
166		
99		
71		
168		
206		
202		
171		
149		
150		
100		
56		
106		
198		
204		
188		
181		
163		
93		
-3		
-19		
89		
156		
182		
179		
188		
149		
80		
36		
124		
167		
157		
157		
144		
144		
91		
52		
105		
172		
178		
172		
160		
157		
111		
37		
50		
143		
190		
207		
195		
213		
177		
117		
82		
151		
191		
192		
155		
149		
137		
78		
22		
58		
168		
177		
162		
150		
160		
106		
36		
50		
170		
198		
189		
169		
165		
145		
71		
45		
128		
167		
162		
133		
135		
135		
87		
28		
72		
153		
174		
148		
118		
119		
69		
12		
50		
167		
186		
206		
211		
236		
178		
86		
34		
113		
162		
143		
142		
166		
209		
168		
102		
108		
174		
189		
150		
146		
149		
110		
45		
57		
164		
168		
159		
132		
144		
122		
57		
33		
131		
190		
186		
173		
165		
160		
94		
42		
86		
182		
210		
193		
192		
181		
123		
52		
43		
129		
160		
169		
166		
175		
148		
80		
48		
170		
239		
237		
225		
186		
133		
38		
-35		
34		
142		
202		
233		
217		
221		
176		
104		
96		
181		
226		
220		
203		
219		
162		
92		
29		
17		
24		
33		
62		
91		
94		
65		
12		
61		
170		
172		
135		
116		
119		
99		
52		
76		
176		
188		
178		
159		
148		
151		
109		
88		
158		
191		
218		
220		
245		
243		
181		
122		
151		
201		
167		
118		
89		
105		
65		
-22		
-27		
68		
87		
85		
64		
66		
37		
7		
11		
166		
289		
299		
283		
260		
250		
179		
92		
88		
152		
178		
141		
110		
125		
112		
58		
60		
149		
175		
193		
172		
184		
164		
97		
60		
143		
220		
223		
236		
238		
205		
124		
79		
135		
177		
129		
67		
45		
54		
15		
-48		
-2		
144		
171		
173		
121		
104		
87		
23		
2		
127		
198		
206		
234		
267		
271		
218		
184		
198		
230		
206		
165		
126		
129		
50		
-31		
-10		
101		
133		
129		
122		
142		
117		
61		
29		
95		
169		
158		
141		
166		
174		
141		
98		
159		
251		
259		
252		
252		
241		
165		
57		
36		
123		
146		
124		
88		
82		
54		
17		
-12		
76		
126		
144		
131		
141		
151		
101		
57		
115		
228		
267		
287		
282		
293		
217		
119		
84		
142		
133		
115		
100		
92		
78		
8		
-40		
47		
140		
151		
162		
170		
180		
141		
92		
148		
233		
250		
237		
211		
203		
150		
75		
89		
220		
278		
285		
