131	-2565	31
169	-2557	31
168	-2557	31
147	-2554	31
153	-2554	31
119	-2554	31
60	-2565	31
27	-2554	31
110	-2565	31
166	-2557	31
172	-2571	31
152	-2574	31
150	-2574	31
163	-2574	31
120	-2574	31
67	-2574	31
111	-2571	31
207	-2571	31
213	-2574	31
205	-2574	31
187	-2576	31
183	-2576	31
139	-2576	31
73	-2574	31
73	-2574	31
173	-2574	31
181	-2554	31
168	-2554	31
142	-2554	31
153	-2554	31
130	-2554	31
69	-2554	31
33	-2554	31
84	-2554	31
143	-2551	31
149	-2551	31
131	-2551	31
127	-2551	31
131	-2551	31
92	-2554	31
35	-2551	31
71	-2551	31
163	-2551	31
178	-2551	31
184	-2534	31
175	-2551	31
188	-2551	31
151	-2551	31
91	-2551	31
103	-2551	31
198	-2551	31
238	-2551	31
223	-2551	31
194	-2551	31
196	-2551	31
156	-2554	31
104	-2551	31
59	-2551	31
103	-2551	31
153	-2534	31
149	-2534	31
131	-2551	31
127	-2534	31
125	-2534	31
92	-2534	31
35	-2534	31
72	-2534	31
167	-2534	31
206	-2551	31
200	-2534	31
196	-2534	31
206	-2548	31
155	-2551	31
82	-2551	31
65	-2551	31
150	-2534	31
170	-2534	31
177	-2534	31
135	-2534	31
149	-2534	31
123	-2534	31
65	-2534	31
17	-2534	31
69	-2534	31
138	-2534	31
147	-2534	31
150	-2534	31
141	-2534	31
144	-2534	31
87	-2534	31
31	-2531	31
58	-2517	31
134	-2517	31
170	-2531	31
163	-2512	31
159	-2512	31
175	-2512	31
147	-2506	31
97	-2501	31
75	-2501	31
164	-2489	31
194	-2467	31
189	-2444	31
180	-2411	31
182	-2360	31
146	-2304	31
72	-2245	31
31	-2200	31
102	-2158	31
142	-2130	31
140	-2102	31
133	-2079	31
140	-2063	31
145	-2060	31
97	-2040	31
47	-2040	31
81	-2035	31
168	-2032	31
193	-2032	31
183	-2018	31
177	-2015	31
195	-2015	31
161	-1995	31
102	-1992	31
84	-1992	31
171	-1992	31
211	-1990	31
219	-1992	31
198	-1992	31
205	-1992	31
169	-1992	31
87	-1992	31
27	-1992	31
82	-1995	31
151	-2001	31
158	-2001	31
140	-2001	31
139	-2015	31
134	-2012	31
95	-2012	31
44	-2015	31
73	-2015	31
187	-2018	31
219	-2018	31
196	-2023	31
181	-2032	31
172	-2037	31
126	-2037	31
52	-2057	31
32	-2063	31
121	-2079	31
166	-2079	31
187	-2094	31
184	-2105	31
189	-2105	31
163	-2099	31
110	-2102	31
73	-2096	31
117	-2094	31
188	-2079	31
193	-2079	31
171	-2085	31
174	-2085	31
161	-2085	31
100	-2079	31
27	-2094	31
56	-2094	31
134	-2085	31
133	-2085	31
119	-2079	31
111	-2085	31
129	-2077	31
93	-2074	31
35	-2077	31
25	-2074	31
110	-2074	31
171	-2074	31
168	-2077	31
145	-2074	31
161	-2071	31
139	-2065	31
90	-2068	31
48	-2065	31
116	-2068	31
176	-2065	31
185	-2071	31
171	-2065	31
177	-2063	31
175	-2063	31
125	-2065	31
61	-2060	31
72	-2054	31
153	-2054	31
187	-2057	31
172	-2054	31
164	-2057	31
167	-2054	31
129	-2060	31
63	-2054	31
47	-2054	31
148	-2046	31
177	-2046	31
184	-2054	31
171	-2046	31
183	-2046	31
163	-2054	31
113	-2054	31
65	-2060	31
132	-2057	31
194	-2054	31
191	-2054	31
173	-2054	31
166	-2046	31
164	-2046	31
100	-2046	31
36	-2046	31
56	-2040	31
143	-2037	31
175	-2037	31
163	-2037	31
149	-2035	31
155	-2032	31
125	-2032	31
75	-2029	31
59	-2026	31
138	-2032	31
175	-2023	31
178	-2018	31
165	-2018	31
170	-2012	31
147	-2012	31
99	-2015	31
45	-2012	31
123	-2015	31
184	-2001	31
189	-1995	31
178	-1992	31
165	-1990	31
158	-1987	31
105	-1987	31
52	-1984	31
73	-1981	31
166	-1990	31
202	-1990	31
198	-1987	31
194	-1992	31
203	-1992	31
155	-1992	31
87	-2001	31
62	-2001	31
138	-2015	31
159	-2032	31
156	-2037	31
128	-2060	31
130	-2074	31
117	-2094	31
57	-2113	31
16	-2138	31
88	-2158	31
169	-2181	31
198	-2181	31
190	-2167	31
190	-2158	31
198	-2158	31
160	-2158	31
87	-2158	31
82	-2152	31
165	-2144	31
186	-2138	31
169	-2124	31
158	-2116	31
158	-2105	31
115	-2102	31
47	-2099	31
33	-2096	31
121	-2094	31
140	-2094	31
137	-2094	31
124	-2094	31
137	-2102	31
118	-2105	31
62	-2099	31
20	-2099	31
80	-2108	31
171	-2116	31
182	-2113	31
167	-2102	31
176	-2094	31
168	-2094	31
124	-2102	31
68	-2096	31
94	-2094	31
163	-2102	31
180	-2108	31
166	-2116	31
151	-2116	31
166	-2116	31
113	-2130	31
40	-2147	31
29	-2158	31
124	-2158	31
160	-2169	31
170	-2169	31
158	-2189	31
177	-2189	31
149	-2195	31
105	-2200	31
63	-2206	31
115	-2211	31
176	-2217	31
171	-2228	31
158	-2214	31
152	-2217	31
149	-2214	31
100	-2220	31
46	-2228	31
57	-2231	31
145	-2231	31
178	-2228	31
165	-2228	31
158	-2231	31
167	-2231	31
133	-2231	31
74	-2231	31
69	-2237	31
165	-2237	31
192	-2237	31
191	-2251	31
172	-2248	31
184	-2254	31
167	-2256	31
111	-2262	31
62	-2273	31
118	-2273	31
192	-2273	31
195	-2273	31
171	-2273	31
169	-2273	31
166	-2276	31
114	-2276	31
65	-2279	31
74	-2282	31
149	-2282	31
170	-2290	31
158	-2301	31
152	-2298	31
160	-2310	31
130	-2310	31
81	-2318	31
55	-2321	31
141	-2327	31
195	-2329	31
197	-2329	31
192	-2327	31
213	-2324	31
198	-2324	31
146	-2321	31
83	-2318	31
130	-2318	31
196	-2318	31
198	-2304	31
169	-2301	31
163	-2301	31
151	-2296	31
93	-2298	31
32	-2301	31
37	-2304	31
108	-2304	31
135	-2310	31
137	-2318	31
127	-2324	31
131	-2327	31
98	-2332	31
41	-2332	31
28	-2338	31
116	-2346	31
153	-2338	31
159	-2346	31
144	-2349	31
169	-2349	31
160	-2349	31
110	-2349	31
91	-2369	31
166	-2374	31
217	-2377	31
218	-2388	31
194	-2394	31
182	-2391	31
173	-2394	31
110	-2394	31
52	-2399	31
65	-2402	31
142	-2405	31
162	-2405	31
158	-2405	31
137	-2405	31
145	-2405	31
115	-2405	31
53	-2414	31
54	-2405	31
150	-2405	31
182	-2422	31
190	-2416	31
169	-2422	31
166	-2422	31
138	-2430	31
75	-2436	31
38	-2433	31
91	-2433	31
156	-2439	31
166	-2444	31
155	-2439	31
156	-2453	31
163	-2444	31
129	-2444	31
67	-2444	31
84	-2453	31
165	-2453	31
179	-2453	31
170	-2458	31
158	-2453	31
158	-2458	31
116	-2453	31
59	-2453	31
41	-2458	31
118	-2456	31
151	-2456	31
156	-2458	31
135	-2458	31
152	-2461	31
135	-2458	31
90	-2461	31
52	-2467	31
109	-2467	31
176	-2467	31
186	-2467	31
185	-2481	31
189	-2478	31
182	-2487	31
130	-2484	31
70	-2484	31
86	-2489	31
164	-2489	31
198	-2498	31
179	-2489	31
168	-2489	31
172	-2487	31
138	-2498	31
81	-2489	31
45	-2489	31
150	-2487	31
172	-2484	31
171	-2481	31
144	-2489	31
141	-2481	31
121	-2487	31
60	-2481	31
23	-2478	31
86	-2478	31
175	-2478	31
174	-2467	31
159	-2467	31
171	-2467	31
170	-2467	31
116	-2467	31
52	-2467	31
81	-2467	31
156	-2467	31
177	-2467	31
182	-2461	31
165	-2461	31
179	-2458	31
161	-2458	31
117	-2456	31
81	-2458	31
152	-2458	31
203	-2453	31
207	-2456	31
190	-2456	31
178	-2453	31
151	-2453	31
90	-2444	31
36	-2453	31
95	-2453	31
153	-2453	31
158	-2444	31
151	-2453	31
158	-2453	31
167	-2444	31
114	-2436	31
49	-2439	31
70	-2439	31
153	-2433	31
174	-2436	31
167	-2442	31
158	-2433	31
171	-2436	31
131	-2436	31
68	-2436	31
39	-2430	31
126	-2433	31
170	-2433	31
171	-2430	31
149	-2422	31
155	-2433	31
133	-2436	31
72	-2430	31
31	-2422	31
101	-2430	31
176	-2422	31
184	-2430	31
173	-2422	31
164	-2428	31
161	-2422	31
107	-2422	31
43	-2416	31
54	-2422	31
141	-2416	31
165	-2422	31
167	-2422	31
162	-2416	31
164	-2416	31
131	-2416	31
73	-2416	31
49	-2414	31
149	-2414	31
194	-2414	31
186	-2414	31
178	-2411	31
186	-2414	31
166	-2399	31
106	-2394	31
56	-2405	31
104	-2399	31
172	-2391	31
184	-2391	31
182	-2385	31
187	-2391	31
177	-2391	31
127	-2391	31
71	-2388	31
81	-2388	31
158	-2391	31
180	-2391	31
180	-2394	31
181	-2388	31
193	-2394	31
151	-2388	31
90	-2391	31
58	-2391	31
118	-2391	31
158	-2388	31
160	-2388	31
137	-2388	31
153	-2391	31
134	-2391	31
90	-2391	31
50	-2383	31
107	-2391	31
160	-2391	31
171	-2391	31
176	-2383	31
174	-2388	31
172	-2394	31
115	-2394	31
50	-2394	31
68	-2399	31
145	-2399	31
172	-2394	31
170	-2394	31
168	-2399	31
189	-2394	31
137	-2394	31
73	-2405	31
44	-2394	31
140	-2394	31
191	-2394	31
202	-2394	31
184	-2394	31
193	-2394	31
183	-2405	31
125	-2394	31
68	-2394	31
103	-2394	31
172	-2394	31
175	-2394	31
150	-2394	31
135	-2394	31
127	-2394	31
70	-2391	31
7	-2391	31
35	-2391	31
116	-2391	31
142	-2394	31
149	-2391	31
141	-2391	31
155	-2388	31
124	-2391	31
70	-2388	31
34	-2391	31
108	-2383	31
173	-2388	31
186	-2383	31
177	-2391	31
178	-2383	31
160	-2377	31
111	-2377	31
57	-2383	31
112	-2377	31
179	-2377	31
178	-2377	31
159	-2377	31
153	-2374	31
162	-2371	31
112	-2374	31
49	-2374	31
65	-2374	31
138	-2374	31
162	-2360	31
155	-2360	31
141	-2360	31
153	-2349	31
118	-2369	31
64	-2374	31
50	-2349	31
136	-2369	31
171	-2360	31
184	-2369	31
165	-2360	31
178	-2360	31
161	-2349	31
97	-2360	31
45	-2369	31
110	-2369	31
181	-2369	31
179	-2369	31
174	-2371	31
165	-2360	31
175	-2371	31
130	-2374	31
75	-2377	31
91	-2377	31
182	-2383	31
203	-2374	31
193	-2383	31
174	-2383	31
178	-2385	31
139	-2388	31
75	-2391	31
57	-2383	31
149	-2377	31
182	-2383	31
175	-2383	31
164	-2383	31
156	-2391	31
138	-2391	31
92	-2388	31
61	-2383	31
137	-2391	31
204	-2391	31
212	-2380	31
192	-2377	31
174	-2383	31
176	-2380	31
120	-2380	31
52	-2377	31
64	-2374	31
158	-2383	31
178	-2377	31
166	-2383	31
137	-2380	31
133	-2385	31
100	-2377	31
27	-2377	31
7	-2377	31
99	-2377	31
141	-2377	31
139	-2377	31
126	-2377	31
134	-2377	31
127	-2371	31
81	-2377	31
44	-2377	31
108	-2383	31
170	-2371	31
183	-2377	31
172	-2377	31
164	-2377	31
158	-2377	31
110	-2377	31
62	-2377	31
74	-2388	31
157	-2383	31
193	-2385	31
185	-2391	31
173	-2388	31
190	-2391	31
166	-2388	31
110	-2394	31
79	-2394	31
163	-2394	31
185	-2394	31
190	-2394	31
182	-2399	31
190	-2399	31
166	-2405	31
102	-2405	31
53	-2414	31
97	-2411	31
162	-2414	31
164	-2405	31
156	-2414	31
167	-2405	31
178	-2405	31
130	-2405	31
67	-2405	31
74	-2405	31
149	-2414	31
157	-2414	31
146	-2405	31
130	-2405	31
127	-2399	31
103	-2405	31
47	-2405	31
18	-2405	31
97	-2405	31
146	-2405	31
157	-2405	31
159	-2394	31
171	-2399	31
150	-2399	31
89	-2405	31
18	-2416	31
69	-2414	31
141	-2405	31
145	-2414	31
131	-2405	31
133	-2405	31
149	-2405	31
117	-2405	31
69	-2405	31
86	-2414	31
177	-2405	31
192	-2414	31
193	-2414	31
178	-2416	31
182	-2405	31
152	-2414	31
85	-2416	31
58	-2405	31
133	-2414	31
172	-2422	31
169	-2422	31
146	-2416	31
149	-2416	31
137	-2416	31
97	-2416	31
59	-2430	31
117	-2422	31
194	-2422	31
203	-2430	31
188	-2422	31
186	-2422	31
187	-2422	31
140	-2422	31
76	-2422	31
83	-2422	31
173	-2422	31
191	-2422	31
186	-2422	31
179	-2422	31
182	-2422	31
141	-2422	31
87	-2422	31
60	-2422	31
141	-2422	31
194	-2422	31
179	-2422	31
165	-2422	31
159	-2422	31
136	-2422	31
91	-2422	31
31	-2422	31
79	-2422	31
149	-2416	31
166	-2416	31
155	-2416	31
152	-2422	31
157	-2416	31
110	-2416	31
56	-2416	31
66	-2416	31
155	-2416	31
189	-2416	31
176	-2422	31
153	-2416	31
171	-2422	31
138	-2416	31
73	-2416	31
49	-2416	31
128	-2416	31
167	-2416	31
167	-2416	31
151	-2414	31
155	-2416	31
134	-2416	31
85	-2416	31
40	-2405	31
89	-2414	31
159	-2414	31
174	-2414	31
174	-2416	31
187	-2414	31
193	-2414	31
152	-2414	31
91	-2414	31
92	-2405	31
168	-2416	31
190	-2414	31
178	-2416	31
168	-2416	31
172	-2416	31
124	-2416	31
69	-2422	31
37	-2422	31
122	-2436	31
178	-2453	31
182	-2456	31
164	-2461	31
169	-2467	31
160	-2484	31
114	-2498	31
59	-2501	31
94	-2506	31
167	-2512	31
177	-2517	31
152	-2534	31
133	-2534	31
122	-2551	31
72	-2554	31
15	-2574	31
38	-2576	31
133	-2579	31
161	-2590	31
163	-2590	31
143	-2590	31
163	-2593	31
142	-2604	31
109	-2613	31
97	-2616	31
167	-2632	31
213	-2641	31
212	-2641	31
190	-2658	31
198	-2663	31
187	-2672	31
133	-2666	31
73	-2658	31
115	-2661	31
184	-2658	31
206	-2658	31
202	-2663	31
184	-2663	31
172	-2666	31
111	-2675	31
39	-2675	31
32	-2686	31
118	-2700	31
140	-2686	31
130	-2686	31
109	-2700	31
112	-2705	31
67	-2703	31
5	-2703	31
-3	-2703	31
90	-2705	31
138	-2719	31
150	-2731	31
140	-2719	31
149	-2719	31
144	-2719	31
89	-2736	31
57	-2734	31
114	-2719	31
196	-2717	31
203	-2717	31
195	-2708	31
190	-2708	31
185	-2705	31
140	-2703	31
85	-2700	31
94	-2686	31
180	-2686	31
211	-2686	31
203	-2686	31
186	-2686	31
183	-2686	31
147	-2686	31
81	-2675	31
34	-2680	31
113	-2686	31
170	-2686	31
167	-2680	31
156	-2686	31
164	-2686	31
163	-2686	31
118	-2686	31
69	-2700	31
120	-2703	31
182	-2708	31
189	-2708	31
172	-2711	31
165	-2714	31
169	-2719	31
126	-2719	31
59	-2719	31
60	-2731	31
132	-2739	31
161	-2745	31
158	-2745	31
140	-2748	31
160	-2748	31
133	-2748	31
78	-2753	31
56	-2742	31
155	-2742	31
188	-2739	31
198	-2742	31
185	-2742	31
185	-2736	31
171	-2731	31
105	-2731	31
61	-2731	31
105	-2719	31
173	-2719	31
175	-2719	31
160	-2714	31
146	-2714	31
147	-2708	31
97	-2686	31
25	-2700	31
37	-2686	31
116	-2700	31
159	-2686	31
161	-2686	31
146	-2686	31
169	-2686	31
137	-2686	31
85	-2686	31
47	-2686	31
133	-2703	31
181	-2705	31
179	-2711	31
157	-2719	31
148	-2717	31
142	-2719	31
105	-2719	31
69	-2719	31
102	-2711	31
168	-2708	31
175	-2703	31
147	-2700	31
143	-2703	31
147	-2703	31
111	-2686	31
47	-2700	31
61	-2700	31
144	-2700	31
167	-2686	31
166	-2700	31
152	-2700	31
167	-2686	31
141	-2686	31
92	-2686	31
67	-2686	31
140	-2683	31
198	-2680	31
198	-2686	31
182	-2683	31
182	-2680	31
173	-2686	31
133	-2680	31
88	-2677	31
128	-2686	31
193	-2680	31
181	-2680	31
148	-2680	31
140	-2680	31
129	-2683	31
87	-2686	31
24	-2686	31
41	-2686	31
125	-2686	31
156	-2686	31
149	-2680	31
126	-2686	31
140	-2686	31
114	-2683	31
54	-2686	31
28	-2680	31
115	-2677	31
161	-2675	31
173	-2680	31
165	-2675	31
181	-2680	31
175	-2675	31
118	-2680	31
66	-2680	31
115	-2675	31
193	-2680	31
194	-2680	31
183	-2675	31
171	-2675	31
171	-2680	31
111	-2680	31
44	-2675	31
41	-2677	31
119	-2680	31
149	-2680	31
146	-2686	31
135	-2675	31
144	-2677	31
127	-2680	31
76	-2680	31
47	-2680	31
129	-2680	31
188	-2677	31
186	-2677	31
175	-2680	31
174	-2680	31
164	-2677	31
111	-2680	31
58	-2680	31
119	-2686	31
192	-2680	31
211	-2686	31
204	-2686	31
191	-2686	31
187	-2686	31
138	-2686	31
83	-2686	31
86	-2686	31
165	-2686	31
189	-2686	31
187	-2686	31
169	-2686	31
179	-2686	31
146	-2686	31
101	-2686	31
70	-2686	31
146	-2686	31
188	-2686	31
186	-2686	31
157	-2686	31
138	-2686	31
118	-2686	31
60	-2686	31
11	-2686	31
57	-2686	31
129	-2686	31
136	-2686	31
131	-2686	31
142	-2686	31
156	-2700	31
110	-2686	31
57	-2683	31
64	-2680	31
142	-2680	31
178	-2680	31
181	-2686	31
162	-2686	31
176	-2680	31
141	-2680	31
93	-2680	31
56	-2686	31
114	-2680	31
172	-2680	31
186	-2683	31
177	-2683	31
183	-2686	31
169	-2686	31
105	-2686	31
49	-2683	31
94	-2683	31
171	-2680	31
181	-2680	31
150	-2675	31
141	-2686	31
144	-2680	31
100	-2683	31
53	-2677	31
73	-2677	31
156	-2680	31
180	-2675	31
183	-2677	31
163	-2675	31
180	-2675	31
155	-2675	31
99	-2677	31
58	-2672	31
121	-2680	31
170	-2675	31
165	-2675	31
156	-2675	31
160	-2680	31
145	-2680	31
98	-2675	31
39	-2677	31
91	-2672	31
177	-2675	31
184	-2675	31
180	-2675	31
169	-2675	31
178	-2675	31
147	-2675	31
82	-2672	31
87	-2669	31
166	-2672	31
192	-2675	31
187	-2672	31
168	-2675	31
176	-2675	31
138	-2675	31
76	-2669	31
53	-2675	31
131	-2672	31
180	-2680	31
193	-2677	31
175	-2675	31
178	-2677	31
166	-2675	31
107	-2672	31
40	-2680	31
81	-2675	31
171	-2680	31
179	-2675	31
189	-2680	31
181	-2677	31
167	-2680	31
124	-2675	31
60	-2680	31
51	-2677	31
125	-2672	31
153	-2675	31
149	-2677	31
130	-2675	31
150	-2675	31
122	-2675	31
64	-2675	31
12	-2677	31
92	-2675	31
153	-2675	31
151	-2672	31
143	-2672	31
141	-2672	31
138	-2669	31
90	-2669	31
33	-2666	31
78	-2669	31
153	-2672	31
176	-2666	31
175	-2666	31
169	-2672	31
184	-2672	31
138	-2669	31
73	-2669	31
68	-2672	31
153	-2666	31
187	-2663	31
175	-2666	31
164	-2663	31
174	-2663	31
144	-2663	31
96	-2663	31
60	-2669	31
138	-2663	31
191	-2663	31
200	-2666	31
187	-2666	31
182	-2663	31
172	-2661	31
119	-2663	31
61	-2669	31
99	-2663	31
168	-2666	31
178	-2663	31
169	-2663	31
153	-2663	31
160	-2663	31
112	-2666	31
66	-2663	31
67	-2663	31
155	-2663	31
195	-2663	31
185	-2663	31
163	-2663	31
171	-2655	31
135	-2658	31
72	-2652	31
33	-2661	31
108	-2663	31
157	-2658	31
155	-2658	31
147	-2652	31
147	-2658	31
140	-2652	31
89	-2652	31
35	-2649	31
70	-2655	31
159	-2658	31
178	-2655	31
164	-2652	31
168	-2655	31
184	-2652	31
150	-2663	31
82	-2658	31
96	-2663	31
179	-2669	31
198	-2666	31
192	-2669	31
174	-2663	31
181	-2669	31
151	-2669	31
102	-2675	31
61	-2677	31
118	-2677	31
166	-2675	31
170	-2680	31
152	-2680	31
158	-2680	31
149	-2675	31
111	-2675	31
66	-2675	31
108	-2677	31
170	-2675	31
179	-2675	31
166	-2675	31
147	-2675	31
150	-2675	31
113	-2675	31
66	-2666	31
54	-2675	31
129	-2669	31
153	-2675	31
141	-2675	31
125	-2675	31
138	-2675	31
116	-2672	31
52	-2675	31
27	-2675	31
121	-2675	31
163	-2680	31
170	-2675	31
161	-2675	31
170	-2675	31
169	-2672	31
119	-2675	31
83	-2675	31
117	-2675	31
175	-2675	31
175	-2677	31
174	-2677	31
162	-2675	31
153	-2680	31
114	-2680	31
53	-2680	31
24	-2680	31
110	-2680	31
144	-2683	31
133	-2675	31
128	-2686	31
128	-2680	31
111	-2686	31
76	-2680	31
43	-2675	31
108	-2675	31
182	-2675	31
173	-2666	31
171	-2672	31
173	-2663	31
179	-2666	31
148	-2663	31
91	-2669	31
115	-2663	31
193	-2658	31
202	-2663	31
186	-2658	31
177	-2658	31
177	-2658	31
153	-2658	31
99	-2663	31
75	-2658	31
149	-2652	31
187	-2658	31
178	-2658	31
179	-2652	31
171	-2652	31
156	-2658	31
98	-2652	31
47	-2652	31
109	-2652	31
171	-2652	31
171	-2652	31
149	-2652	31
148	-2652	31
144	-2649	31
121	-2652	31
67	-2652	31
76	-2658	31
167	-2649	31
178	-2658	31
165	-2652	31
161	-2663	31
158	-2663	31
134	-2661	31
68	-2658	31
43	-2658	31
108	-2658	31
147	-2658	31
138	-2663	31
141	-2663	31
145	-2658	31
125	-2658	31
80	-2663	31
31	-2652	31
100	-2658	31
161	-2652	31
168	-2652	31
161	-2649	31
170	-2652	31
166	-2652	31
107	-2649	31
50	-2652	31
97	-2649	31
181	-2652	31
191	-2649	31
172	-2638	31
166	-2638	31
164	-2638	31
125	-2635	31
56	-2635	31
41	-2638	31
141	-2638	31
193	-2635	31
193	-2635	31
171	-2641	31
186	-2638	31
157	-2635	31
116	-2638	31
88	-2638	31
178	-2635	31
235	-2635	31
219	-2635	31
196	-2635	31
186	-2635	31
168	-2635	31
110	-2632	31
51	-2635	31
68	-2635	31
143	-2635	31
162	-2635	31
150	-2635	31
135	-2635	31
142	-2635	31
105	-2635	31
38	-2632	31
36	-2632	31
122	-2632	31
153	-2632	31
158	-2632	31
149	-2635	31
153	-2635	31
132	-2638	31
97	-2635	31
67	-2638	31
130	-2647	31
190	-2652	31
190	-2652	31
158	-2658	31
156	-2666	31
147	-2663	31
94	-2675	31
40	-2686	31
85	-2686	31
160	-2686	31
178	-2700	31
172	-2700	31
165	-2700	31
180	-2703	31
147	-2703	31
92	-2700	31
73	-2700	31
163	-2700	31
201	-2686	31
187	-2686	31
158	-2700	31
163	-2686	31
126	-2686	31
57	-2686	31
5	-2686	31
67	-2686	31
135	-2686	31
145	-2686	31
133	-2686	31
139	-2680	31
140	-2683	31
98	-2675	31
50	-2686	31
92	-2680	31
169	-2683	31
194	-2680	31
184	-2677	31
176	-2680	31
182	-2680	31
135	-2680	31
92	-2686	31
79	-2686	31
149	-2686	31
182	-2686	31
188	-2686	31
178	-2700	31
174	-2703	31
146	-2703	31
89	-2703	31
51	-2705	31
130	-2705	31
175	-2711	31
177	-2717	31
165	-2714	31
165	-2717	31
156	-2717	31
103	-2719	31
43	-2719	31
80	-2714	31
155	-2711	31
174	-2717	31
171	-2708	31
160	-2717	31
171	-2714	31
130	-2711	31
83	-2703	31
79	-2700	31
172	-2708	31
198	-2703	31
203	-2705	31
192	-2700	31
198	-2703	31
165	-2708	31
94	-2700	31
45	-2700	31
105	-2686	31
149	-2703	31
163	-2703	31
153	-2703	31
140	-2700	31
125	-2700	31
73	-2700	31
22	-2700	31
55	-2686	31
145	-2686	31
156	-2700	31
157	-2700	31
162	-2700	31
184	-2686	31
144	-2686	31
67	-2686	31
54	-2686	31
137	-2700	31
156	-2703	31
148	-2700	31
135	-2686	31
151	-2700	31
145	-2700	31
92	-2700	31
55	-2700	31
122	-2703	31
190	-2686	31
205	-2686	31
192	-2686	31
187	-2700	31
174	-2686	31
120	-2686	31
52	-2686	31
83	-2700	31
161	-2700	31
168	-2700	31
164	-2700	31
146	-2686	31
166	-2686	31
132	-2686	31
75	-2686	31
85	-2686	31
170	-2686	31
204	-2686	31
206	-2686	31
178	-2686	31
178	-2686	31
155	-2686	31
101	-2686	31
50	-2686	31
109	-2686	31
168	-2686	31
169	-2686	31
145	-2686	31
144	-2686	31
137	-2680	31
91	-2669	31
40	-2675	31
76	-2672	31
164	-2680	31
183	-2680	31
170	-2669	31
164	-2680	31
175	-2675	31
123	-2675	31
52	-2672	31
49	-2675	31
150	-2675	31
176	-2675	31
182	-2675	31
163	-2675	31
176	-2669	31
143	-2666	31
91	-2669	31
43	-2669	31
103	-2666	31
168	-2663	31
166	-2666	31
147	-2675	31
145	-2669	31
144	-2672	31
84	-2669	31
27	-2675	31
76	-2680	31
167	-2677	31
178	-2675	31
180	-2680	31
166	-2680	31
174	-2677	31
140	-2686	31
92	-2686	31
78	-2680	31
150	-2686	31
193	-2686	31
181	-2703	31
169	-2700	31
172	-2686	31
142	-2686	31
73	-2686	31
33	-2686	31
117	-2686	31
174	-2686	31
188	-2686	31
193	-2686	31
197	-2686	31
178	-2686	31
125	-2686	31
69	-2686	31
91	-2686	31
159	-2686	31
171	-2686	31
155	-2686	31
137	-2686	31
147	-2680	31
108	-2680	31
36	-2677	31
30	-2680	31
127	-2686	31
149	-2686	31
159	-2677	31
140	-2675	31
155	-2675	31
144	-2675	31
85	-2669	31
45	-2675	31
119	-2675	31
187	-2669	31
183	-2675	31
159	-2675	31
150	-2675	31
149	-2666	31
92	-2663	31
29	-2663	31
71	-2666	31
160	-2658	31
171	-2663	31
166	-2658	31
166	-2658	31
169	-2652	31
131	-2658	31
73	-2652	31
57	-2652	31
163	-2658	31
198	-2658	31
202	-2658	31
190	-2658	31
193	-2658	31
180	-2652	31
112	-2658	31
69	-2669	31
130	-2663	31
195	-2669	31
194	-2663	31
172	-2669	31
167	-2669	31
160	-2669	31
109	-2663	31
44	-2675	31
68	-2672	31
140	-2666	31
151	-2675	31
137	-2669	31
118	-2663	31
125	-2666	31
80	-2666	31
15	-2663	31
21	-2666	31
119	-2669	31
162	-2663	31
171	-2672	31
160	-2672	31
175	-2675	31
158	-2669	31
103	-2675	31
66	-2675	31
128	-2669	31
187	-2669	31
203	-2669	31
184	-2669	31
178	-2669	31
174	-2669	31
125	-2666	31
73	-2666	31
94	-2669	31
166	-2663	31
190	-2663	31
174	-2675	31
155	-2669	31
170	-2666	31
140	-2672	31
81	-2669	31
57	-2663	31
143	-2672	31
166	-2666	31
166	-2669	31
144	-2669	31
152	-2669	31
132	-2669	31
78	-2669	31
56	-2666	31
132	-2675	31
183	-2663	31
184	-2663	31
167	-2663	31
156	-2663	31
155	-2666	31
101	-2669	31
47	-2669	31
71	-2669	31
146	-2663	31
169	-2663	31
170	-2663	31
151	-2669	31
160	-2666	31
115	-2666	31
56	-2663	31
32	-2663	31
112	-2663	31
152	-2663	31
158	-2663	31
144	-2663	31
155	-2658	31
141	-2663	31
88	-2661	31
53	-2663	31
129	-2658	31
199	-2663	31
200	-2663	31
186	-2663	31
179	-2663	31
174	-2663	31
117	-2658	31
51	-2663	31
79	-2661	31
158	-2663	31
165	-2658	31
168	-2658	31
153	-2658	31
156	-2658	31
116	-2652	31
52	-2649	31
54	-2635	31
141	-2638	31
173	-2638	31
177	-2638	31
157	-2638	31
163	-2638	31
137	-2638	31
78	-2635	31
37	-2635	31
117	-2638	31
172	-2638	31
177	-2632	31
161	-2635	31
155	-2635	31
168	-2638	31
123	-2641	31
69	-2638	31
96	-2638	31
168	-2638	31
175	-2641	31
173	-2638	31
171	-2647	31
191	-2641	31
151	-2647	31
80	-2638	31
60	-2649	31
163	-2649	31
182	-2647	31
179	-2641	31
162	-2641	31
159	-2652	31
142	-2649	31
104	-2647	31
82	-2647	31
129	-2641	31
183	-2641	31
187	-2649	31
169	-2647	31
166	-2638	31
160	-2638	31
111	-2641	31
53	-2647	31
90	-2644	31
167	-2641	31
172	-2638	31
173	-2641	31
148	-2638	31
168	-2638	31
146	-2635	31
97	-2635	31
93	-2632	31
172	-2635	31
194	-2635	31
180	-2641	31
152	-2632	31
152	-2632	31
121	-2635	31
53	-2632	31
9	-2635	31
69	-2632	31
126	-2635	31
133	-2632	31
129	-2635	31
131	-2635	31
142	-2632	31
106	-2632	31
52	-2632	31
74	-2632	31
159	-2635	31
198	-2635	31
188	-2632	31
185	-2632	31
193	-2632	31
146	-2632	31
90	-2632	31
64	-2632	31
158	-2635	31
184	-2632	31
184	-2632	31
170	-2632	31
169	-2632	31
153	-2632	31
99	-2632	31
47	-2632	31
100	-2632	31
173	-2632	31
185	-2635	31
174	-2632	31
179	-2632	31
176	-2635	31
122	-2632	31
59	-2632	31
80	-2632	31
159	-2632	31
169	-2632	31
162	-2635	31
149	-2635	31
160	-2632	31
127	-2635	31
75	-2635	31
57	-2632	31
138	-2632	31
183	-2635	31
180	-2632	31
167	-2632	31
172	-2632	31
151	-2616	31
96	-2616	31
47	-2616	31
122	-2613	31
182	-2613	31
182	-2613	31
171	-2610	31
161	-2602	31
150	-2596	31
96	-2596	31
36	-2593	31
53	-2590	31
144	-2593	31
153	-2602	31
147	-2596	31
141	-2604	31
163	-2604	31
134	-2604	31
64	-2596	31
59	-2604	31
141	-2604	31
182	-2604	31
188	-2604	31
166	-2602	31
177	-2602	31
161	-2596	31
93	-2602	31
43	-2602	31
118	-2593	31
170	-2593	31
166	-2590	31
151	-2593	31
143	-2590	31
138	-2590	31
85	-2590	31
27	-2590	31
57	-2596	31
147	-2596	31
177	-2602	31
175	-2590	31
166	-2602	31
188	-2593	31
149	-2596	31
87	-2596	31
57	-2596	31
139	-2602	31
175	-2604	31
166	-2596	31
145	-2602	31
149	-2596	31
138	-2596	31
89	-2596	31
49	-2596	31
105	-2590	31
166	-2593	31
169	-2593	31
159	-2596	31
155	-2590	31
155	-2596	31
109	-2590	31
51	-2590	31
85	-2590	31
170	-2590	31
186	-2588	31
182	-2585	31
159	-2579	31
163	-2579	31
121	-2585	31
61	-2585	31
44	-2588	31
126	-2585	31
163	-2585	31
167	-2588	31
153	-2576	31
163	-2590	31
159	-2585	31
99	-2590	31
54	-2590	31
114	-2593	31
175	-2588	31
189	-2590	31
170	-2602	31
179	-2596	31
180	-2604	31
128	-2596	31
84	-2602	31
111	-2604	31
189	-2610	31
209	-2610	31
192	-2604	31
174	-2610	31
176	-2604	31
129	-2604	31
79	-2613	31
49	-2613	31
133	-2613	31
174	-2610	31
175	-2610	31
149	-2613	31
152	-2610	31
137	-2610	31
75	-2604	31
33	-2596	31
94	-2604	31
168	-2593	31
170	-2599	31
150	-2604	31
153	-2604	31
148	-2604	31
100	-2602	31
40	-2604	31
69	-2604	31
158	-2602	31
182	-2610	31
181	-2604	31
164	-2613	31
168	-2610	31
129	-2610	31
74	-2610	31
57	-2604	31
131	-2610	31
159	-2604	31
165	-2604	31
140	-2604	31
148	-2613	31
130	-2613	31
83	-2604	31
46	-2613	31
113	-2596	31
178	-2593	31
183	-2596	31
173	-2596	31
162	-2593	31
167	-2602	31
111	-2602	31
48	-2593	31
82	-2596	31
175	-2596	31
190	-2602	31
198	-2596	31
176	-2593	31
180	-2593	31
146	-2593	31
80	-2596	31
57	-2593	31
140	-2596	31
180	-2596	31
178	-2593	31
149	-2596	31
144	-2593	31
123	-2593	31
58	-2590	31
17	-2596	31
83	-2590	31
160	-2590	31
172	-2588	31
162	-2590	31
166	-2593	31
171	-2590	31
120	-2585	31
70	-2585	31
93	-2590	31
166	-2590	31
190	-2588	31
186	-2590	31
167	-2590	31
174	-2588	31
139	-2590	31
75	-2590	31
39	-2593	31
138	-2590	31
175	-2590	31
171	-2590	31
164	-2579	31
159	-2593	31
158	-2588	31
96	-2593	31
61	-2590	31
121	-2590	31
178	-2593	31
186	-2590	31
172	-2593	31
166	-2590	31
163	-2590	31
116	-2593	31
54	-2599	31
78	-2590	31
156	-2593	31
176	-2593	31
169	-2593	31
152	-2590	31
163	-2590	31
124	-2593	31
73	-2596	31
52	-2590	31
134	-2596	31
181	-2596	31
179	-2590	31
155	-2593	31
166	-2593	31
148	-2596	31
93	-2593	31
40	-2590	31
100	-2596	31
165	-2593	31
175	-2596	31
160	-2590	31
160	-2596	31
164	-2604	31
111	-2604	31
52	-2604	31
67	-2604	31
157	-2604	31
187	-2610	31
181	-2604	31
166	-2602	31
175	-2596	31
129	-2596	31
67	-2604	31
42	-2602	31
147	-2604	31
179	-2602	31
175	-2596	31
162	-2593	31
158	-2604	31
151	-2604	31
98	-2596	31
59	-2602	31
101	-2604	31
171	-2599	31
176	-2602	31
160	-2593	31
162	-2602	31
159	-2604	31
118	-2604	31
55	-2604	31
70	-2604	31
161	-2602	31
182	-2604	31
186	-2596	31
180	-2596	31
187	-2596	31
159	-2602	31
100	-2596	31
67	-2593	31
131	-2593	31
184	-2593	31
175	-2593	31
158	-2590	31
168	-2590	31
141	-2579	31
95	-2579	31
58	-2588	31
124	-2579	31
184	-2579	31
186	-2579	31
163	-2585	31
159	-2576	31
151	-2585	31
101	-2593	31
39	-2590	31
57	-2585	31
142	-2588	31
152	-2590	31
148	-2593	31
126	-2593	31
138	-2590	31
103	-2593	31
45	-2590	31
37	-2593	31
137	-2596	31
173	-2596	31
177	-2596	31
153	-2596	31
156	-2596	31
149	-2602	31
100	-2604	31
74	-2604	31
144	-2604	31
222	-2593	31
219	-2593	31
203	-2604	31
187	-2599	31
179	-2596	31
121	-2602	31
48	-2596	31
56	-2593	31
133	-2588	31
158	-2588	31
150	-2585	31
138	-2576	31
165	-2585	31
140	-2576	31
82	-2574	31
43	-2576	31
113	-2576	31
160	-2576	31
142	-2574	31
135	-2576	31
138	-2571	31
119	-2574	31
65	-2576	31
19	-2574	31
87	-2574	31
152	-2574	31
171	-2576	31
178	-2574	31
180	-2576	31
182	-2576	31
127	-2576	31
61	-2576	31
70	-2574	31
152	-2579	31
178	-2574	31
179	-2574	31
178	-2557	31
205	-2565	31
174	-2565	31
109	-2557	31
83	-2557	31
156	-2554	31
192	-2554	31
211	-2554	31
202	-2554	31
201	-2554	31
180	-2551	31
113	-2554	31
53	-2554	31
94	-2554	31
149	-2551	31
136	-2551	31
115	-2551	31
113	-2554	31
118	-2554	31
68	-2554	31
16	-2551	31
50	-2534	31
134	-2534	31
169	-2534	31
167	-2534	31
147	-2534	31
169	-2534	31
132	-2534	31
86	-2534	31
58	-2534	31
135	-2534	31
183	-2534	31
185	-2534	31
167	-2534	31
172	-2534	31
152	-2534	31
88	-2534	31
43	-2534	31
100	-2534	31
169	-2534	31
174	-2534	31
168	-2534	31
171	-2534	31
167	-2551	31
127	-2551	31
68	-2551	31
95	-2551	31
172	-2551	31
189	-2551	31
203	-2551	31
187	-2551	31
203	-2551	31
174	-2554	31
130	-2551	31
111	-2551	31
182	-2551	31
222	-2554	31
207	-2551	31
182	-2551	31
179	-2548	31
159	-2534	31
105	-2534	31
40	-2534	31
88	-2534	31
155	-2534	31
146	-2534	31
131	-2534	31
117	-2534	31
111	-2534	31
70	-2534	31
4	-2534	31
20	-2534	31
106	-2534	31
127	-2534	31
130	-2534	31
113	-2534	31
119	-2551	31
91	-2551	31
44	-2548	31
38	-2551	31
122	-2551	31
167	-2551	31
173	-2551	31
155	-2534	31
162	-2551	31
156	-2551	31
107	-2551	31
49	-2554	31
108	-2551	31
187	-2554	31
191	-2551	31
180	-2554	31
174	-2551	31
186	-2554	31
148	-2554	31
101	-2554	31
108	-2554	31
187	-2554	31
206	-2557	31
178	-2551	31
147	-2551	31
156	-2554	31
125	-2554	31
63	-2551	31
35	-2554	31
112	-2551	31
170	-2554	31
174	-2554	31
164	-2554	31
176	-2554	31
165	-2554	31
108	-2554	31
49	-2551	31
106	-2554	31
164	-2554	31
182	-2554	31
171	-2551	31
159	-2551	31
167	-2554	31
110	-2554	31
49	-2551	31
61	-2551	31
151	-2554	31
179	-2554	31
180	-2557	31
165	-2554	31
174	-2565	31
150	-2565	31
97	-2565	31
79	-2557	31
180	-2557	31
221	-2565	31
221	-2554	31
197	-2565	31
187	-2571	31
160	-2554	31
89	-2565	31
42	-2557	31
95	-2557	31
158	-2554	31
169	-2565	31
153	-2571	31
144	-2565	31
148	-2565	31
109	-2557	31
57	-2565	31
63	-2571	31
152	-2565	31
178	-2568	31
170	-2574	31
158	-2574	31
169	-2574	31
144	-2574	31
100	-2576	31
85	-2579	31
170	-2579	31
211	-2576	31
201	-2576	31
169	-2579	31
161	-2576	31
137	-2576	31
80	-2574	31
22	-2576	31
69	-2574	31
144	-2576	31
156	-2576	31
146	-2576	31
159	-2576	31
156	-2579	31
115	-2576	31
53	-2574	31
75	-2574	31
170	-2576	31
173	-2574	31
178	-2571	31
151	-2574	31
156	-2571	31
115	-2574	31
57	-2571	31
21	-2574	31
94	-2574	31
146	-2576	31
142	-2576	31
131	-2571	31
138	-2565	31
125	-2571	31
72	-2565	31
29	-2571	31
81	-2571	31
160	-2574	31
182	-2571	31
186	-2571	31
195	-2576	31
193	-2571	31
148	-2571	31
85	-2571	31
109	-2576	31
207	-2576	31
227	-2576	31
229	-2576	31
222	-2579	31
233	-2579	31
181	-2593	31
102	-2593	31
61	-2590	31
118	-2596	31
138	-2604	31
137	-2596	31
108	-2604	31
95	-2604	31
69	-2602	31
11	-2593	31
-46	-2602	31
14	-2604	31
102	-2604	31
118	-2604	31
116	-2604	31
131	-2604	31
155	-2604	31
114	-2602	31
64	-2604	31
92	-2596	31
193	-2596	31
224	-2602	31
227	-2593	31
205	-2596	31
227	-2602	31
190	-2596	31
141	-2593	31
106	-2593	31
182	-2593	31
234	-2593	31
211	-2593	31
196	-2602	31
198	-2593	31
189	-2593	31
136	-2593	31
86	-2593	31
135	-2593	31
189	-2596	31
190	-2596	31
176	-2593	31
155	-2593	31
143	-2596	31
86	-2604	31
17	-2593	31
15	-2593	31
85	-2593	31
99	-2593	31
86	-2602	31
66	-2593	31
89	-2593	31
63	-2593	31
7	-2593	31
-14	-2593	31
83	-2593	31
142	-2593	31
155	-2593	31
146	-2593	31
167	-2593	31
162	-2593	31
112	-2596	31
67	-2593	31
118	-2593	31
192	-2593	31
203	-2593	31
195	-2590	31
190	-2590	31
197	-2593	31
153	-2590	31
100	-2590	31
120	-2590	31
226	-2593	31
260	-2590	31
258	-2590	31
227	-2588	31
230	-2588	31
187	-2585	31
118	-2590	31
76	-2579	31
155	-2579	31
207	-2579	31
212	-2585	31
183	-2585	31
171	-2590	31
138	-2585	31
64	-2579	31
7	-2576	31
36	-2576	31
116	-2576	31
132	-2585	31
122	-2579	31
123	-2576	31
130	-2576	31
93	-2576	31
23	-2576	31
46	-2576	31
135	-2576	31
156	-2576	31
157	-2585	31
138	-2576	31
147	-2574	31
100	-2576	31
43	-2576	31
17	-2576	31
93	-2574	31
150	-2574	31
162	-2576	31
144	-2576	31
157	-2574	31
165	-2576	31
133	-2576	31
82	-2576	31
121	-2574	31
195	-2574	31
199	-2576	31
199	-2579	31
201	-2579	31
225	-2576	31
167	-2588	31
79	-2590	31
76	-2590	31
148	-2588	31
166	-2588	31
164	-2590	31
158	-2590	31
163	-2590	31
131	-2590	31
63	-2588	31
33	-2593	31
130	-2590	31
183	-2590	31
193	-2585	31
179	-2590	31
196	-2590	31
193	-2588	31
116	-2579	31
55	-2579	31
111	-2579	31
176	-2585	31
171	-2588	31
164	-2576	31
155	-2576	31
155	-2576	31
103	-2579	31
41	-2579	31
41	-2579	31
131	-2579	31
158	-2576	31
140	-2588	31
121	-2585	31
117	-2576	31
78	-2579	31
16	-2579	31
-19	-2576	31
69	-2576	31
132	-2585	31
141	-2576	31
142	-2579	31
162	-2576	31
158	-2576	31
102	-2579	31
57	-2579	31
111	-2576	31
179	-2579	31
198	-2585	31
190	-2579	31
179	-2585	31
187	-2585	31
142	-2590	31
74	-2585	31
79	-2585	31
169	-2579	31
188	-2576	31
195	-2590	31
178	-2590	31
193	-2590	31
166	-2588	31
98	-2579	31
67	-2585	31
148	-2588	31
195	-2590	31
196	-2579	31
175	-2576	31
174	-2576	31
170	-2579	31
102	-2579	31
51	-2579	31
90	-2579	31
159	-2576	31
167	-2576	31
157	-2574	31
150	-2571	31
163	-2571	31
120	-2576	31
61	-2574	31
82	-2574	31
172	-2574	31
206	-2574	31
218	-2574	31
195	-2565	31
199	-2571	31
158	-2571	31
80	-2571	31
31	-2574	31
108	-2571	31
159	-2574	31
157	-2574	31
134	-2568	31
126	-2571	31
107	-2576	31
61	-2576	31
20	-2576	31
62	-2574	31
140	-2576	31
166	-2574	31
164	-2574	31
158	-2576	31
164	-2576	31
108	-2579	31
45	-2579	31
58	-2588	31
166	-2576	31
194	-2576	31
199	-2579	31
173	-2590	31
182	-2585	31
150	-2588	31
96	-2590	31
64	-2585	31
137	-2588	31
198	-2588	31
183	-2588	31
179	-2590	31
178	-2590	31
163	-2579	31
102	-2579	31
53	-2579	31
94	-2579	31
160	-2576	31
180	-2565	31
170	-2565	31
175	-2554	31
187	-2554	31
133	-2554	31
73	-2565	31
76	-2554	31
157	-2554	31
198	-2554	31
191	-2554	31
178	-2565	31
184	-2554	31
146	-2554	31
70	-2554	31
29	-2557	31
120	-2565	31
163	-2565	31
164	-2571	31
138	-2557	31
137	-2565	31
117	-2576	31
56	-2576	31
-1	-2571	31
43	-2574	31
138	-2574	31
151	-2576	31
151	-2574	31
155	-2576	31
168	-2579	31
122	-2590	31
72	-2585	31
78	-2579	31
168	-2574	31
223	-2579	31
228	-2579	31
211	-2585	31
214	-2585	31
176	-2588	31
109	-2590	31
67	-2588	31
140	-2593	31
189	-2593	31
192	-2590	31
168	-2596	31
164	-2596	31
130	-2593	31
66	-2610	31
-3	-2610	31
38	-2610	31
122	-2613	31
131	-2613	31
123	-2616	31
108	-2616	31
120	-2613	31
76	-2624	31
8	-2616	31
28	-2616	31
132	-2616	31
166	-2616	31
175	-2616	31
158	-2613	31
183	-2616	31
155	-2616	31
98	-2610	31
69	-2613	31
155	-2616	31
210	-2616	31
206	-2616	31
182	-2613	31
177	-2624	31
172	-2616	31
107	-2616	31
46	-2616	31
102	-2632	31
182	-2632	31
198	-2632	31
201	-2632	31
188	-2632	31
197	-2624	31
138	-2632	31
58	-2624	31
57	-2632	31
147	-2632	31
170	-2624	31
170	-2621	31
144	-2624	31
155	-2624	31
135	-2624	31
76	-2621	31
47	-2621	31
139	-2616	31
200	-2621	31
207	-2624	31
204	-2632	31
227	-2616	31
222	-2616	31
153	-2616	31
91	-2613	31
124	-2613	31
192	-2616	31
214	-2613	31
208	-2613	31
204	-2616	31
203	-2613	31
143	-2613	31
60	-2610	31
54	-2604	31
140	-2604	31
164	-2613	31
171	-2610	31
138	-2604	31
135	-2604	31
85	-2604	31
18	-2604	31
-36	-2610	31
19	-2604	31
74	-2604	31
85	-2602	31
75	-2602	31
85	-2593	31
93	-2604	31
47	-2610	31
-1	-2604	31
40	-2610	31
132	-2610	31
166	-2604	31
167	-2613	31
177	-2613	31
208	-2610	31
169	-2604	31
111	-2610	31
107	-2610	31
209	-2610	31
259	-2610	31
255	-2610	31
234	-2604	31
230	-2604	31
184	-2610	31
103	-2613	31
51	-2613	31
130	-2610	31
176	-2610	31
174	-2616	31
155	-2604	31
167	-2610	31
165	-2613	31
94	-2610	31
36	-2616	31
66	-2613	31
149	-2613	31
162	-2613	31
133	-2616	31
119	-2610	31
128	-2613	31
81	-2618	31
28	-2613	31
28	-2613	31
127	-2613	31
186	-2613	31
180	-2616	31
156	-2616	31
172	-2610	31
147	-2610	31
88	-2613	31
41	-2613	31
127	-2613	31
187	-2610	31
195	-2610	31
176	-2604	31
179	-2610	31
170	-2604	31
115	-2610	31
54	-2610	31
88	-2610	31
166	-2613	31
176	-2613	31
175	-2613	31
160	-2613	31
168	-2616	31
115	-2616	31
44	-2616	31
57	-2613	31
164	-2616	31
203	-2613	31
210	-2616	31
182	-2616	31
200	-2616	31
178	-2613	31
125	-2616	31
83	-2613	31
151	-2616	31
215	-2613	31
209	-2616	31
190	-2616	31
189	-2616	31
174	-2616	31
113	-2616	31
51	-2613	31
97	-2613	31
181	-2613	31
186	-2613	31
166	-2613	31
143	-2616	31
144	-2618	31
97	-2616	31
27	-2616	31
20	-2624	31
111	-2618	31
144	-2613	31
141	-2613	31
130	-2613	31
158	-2616	31
130	-2616	31
73	-2616	31
50	-2613	31
136	-2616	31
194	-2610	31
198	-2616	31
181	-2613	31
167	-2613	31
153	-2610	31
100	-2613	31
32	-2610	31
64	-2610	31
156	-2613	31
174	-2604	31
164	-2610	31
160	-2604	31
165	-2610	31
110	-2610	31
36	-2610	31
48	-2613	31
147	-2610	31
170	-2610	31
164	-2610	31
132	-2610	31
150	-2610	31
128	-2604	31
75	-2610	31
27	-2610	31
104	-2610	31
163	-2610	31
168	-2613	31
166	-2610	31
166	-2610	31
176	-2613	31
115	-2604	31
61	-2613	31
106	-2610	31
178	-2604	31
197	-2604	31
188	-2610	31
182	-2604	31
184	-2604	31
127	-2604	31
53	-2613	31
48	-2610	31
142	-2610	31
168	-2613	31
159	-2613	31
146	-2613	31
160	-2610	31
144	-2604	31
79	-2613	31
32	-2610	31
142	-2610	31
194	-2604	31
184	-2604	31
169	-2604	31
153	-2596	31
142	-2613	31
80	-2604	31
19	-2604	31
65	-2604	31
163	-2593	31
171	-2604	31
164	-2610	31
147	-2604	31
161	-2604	31
117	-2596	31
33	-2604	31
36	-2602	31
157	-2596	31
184	-2602	31
179	-2596	31
170	-2602	31
177	-2596	31
157	-2596	31
85	-2602	31
40	-2593	31
139	-2596	31
204	-2596	31
202	-2602	31
192	-2596	31
190	-2590	31
181	-2593	31
113	-2593	31
49	-2590	31
100	-2596	31
195	-2593	31
205	-2593	31
205	-2593	31
211	-2590	31
212	-2593	31
149	-2588	31
67	-2590	31
78	-2590	31
178	-2590	31
189	-2576	31
182	-2585	31
149	-2588	31
164	-2585	31
132	-2590	31
48	-2585	31
-3	-2588	31
78	-2590	31
133	-2590	31
125	-2593	31
115	-2590	31
116	-2590	31
128	-2590	31
62	-2590	31
0	-2590	31
45	-2593	31
146	-2593	31
186	-2593	31
194	-2596	31
182	-2596	31
197	-2593	31
142	-2590	31
78	-2590	31
85	-2588	31
177	-2590	31
198	-2590	31
185	-2590	31
161	-2590	31
170	-2590	31
137	-2590	31
60	-2593	31
11	-2590	31
91	-2590	31
159	-2590	31
152	-2590	31
142	-2593	31
128	-2593	31
123	-2593	31
60	-2590	31
1	-2588	31
60	-2593	31
151	-2590	31
163	-2590	31
174	-2590	31
174	-2588	31
178	-2588	31
137	-2590	31
73	-2593	31
83	-2593	31
191	-2590	31
225	-2593	31
233	-2590	31
205	-2590	31
207	-2590	31
182	-2593	31
105	-2590	31
53	-2579	31
120	-2588	31
174	-2585	31
181	-2579	31
168	-2588	31
159	-2579	31
144	-2579	31
85	-2576	31
25	-2579	31
58	-2579	31
140	-2579	31
150	-2576	31
145	-2576	31
140	-2576	31
153	-2579	31
119	-2576	31
44	-2576	31
44	-2574	31
133	-2585	31
168	-2588	31
172	-2576	31
150	-2579	31
163	-2576	31
139	-2585	31
85	-2579	31
49	-2585	31
158	-2585	31
224	-2588	31
243	-2588	31
238	-2576	31
225	-2579	31
210	-2585	31
125	-2576	31
45	-2590	31
67	-2579	31
153	-2576	31
167	-2574	31
163	-2574	31
147	-2574	31
147	-2574	31
104	-2571	31
48	-2571	31
55	-2565	31
161	-2571	31
186	-2571	31
187	-2568	31
172	-2565	31
181	-2557	31
152	-2554	31
82	-2571	31
38	-2554	31
139	-2565	31
206	-2571	31
201	-2557	31
197	-2571	31
196	-2565	31
184	-2557	31
112	-2565	31
44	-2554	31
74	-2554	31
155	-2554	31
152	-2551	31
146	-2551	31
125	-2554	31
122	-2554	31
76	-2554	31
-5	-2554	31
-2	-2557	31
113	-2557	31
143	-2554	31
152	-2554	31
143	-2554	31
146	-2554	31
124	-2551	31
63	-2551	31
19	-2551	31
101	-2554	31
171	-2554	31
165	-2551	31
155	-2554	31
153	-2551	31
153	-2551	31
94	-2551	31
23	-2551	31
81	-2554	31
179	-2554	31
189	-2554	31
200	-2551	31
182	-2551	31
198	-2551	31
153	-2554	31
85	-2554	31
87	-2554	31
185	-2554	31
223	-2565	31
223	-2554	31
207	-2554	31
222	-2554	31
195	-2557	31
125	-2565	31
86	-2554	31
147	-2554	31
201	-2554	31
187	-2554	31
163	-2551	31
152	-2551	31
144	-2551	31
94	-2554	31
30	-2554	31
48	-2554	31
148	-2554	31
186	-2554	31
180	-2554	31
174	-2554	31
177	-2565	31
124	-2557	31
54	-2557	31
38	-2557	31
115	-2557	31
144	-2557	31
149	-2565	31
158	-2554	31
180	-2554	31
161	-2554	31
114	-2554	31
66	-2554	31
127	-2565	31
183	-2554	31
187	-2554	31
166	-2565	31
155	-2554	31
140	-2565	31
88	-2554	31
28	-2554	31
57	-2557	31
142	-2557	31
162	-2554	31
148	-2554	31
124	-2565	31
126	-2554	31
84	-2551	31
24	-2554	31
17	-2551	31
95	-2554	31
139	-2554	31
144	-2557	31
128	-2551	31
144	-2554	31
124	-2554	31
72	-2554	31
33	-2551	31
124	-2551	31
192	-2551	31
202	-2551	31
191	-2551	31
198	-2551	31
198	-2551	31
137	-2551	31
81	-2534	31
109	-2551	31
198	-2551	31
223	-2551	31
219	-2534	31
210	-2534	31
222	-2551	31
170	-2551	31
107	-2551	31
105	-2554	31
181	-2551	31
205	-2551	31
205	-2551	31
176	-2534	31
171	-2534	31
141	-2534	31
73	-2551	31
26	-2534	31
83	-2534	31
141	-2551	31
143	-2534	31
123	-2534	31
128	-2534	31
129	-2548	31
75	-2534	31
28	-2534	31
76	-2534	31
167	-2551	31
189	-2551	31
185	-2551	31
172	-2551	31
186	-2534	31
142	-2534	31
65	-2534	31
66	-2534	31
171	-2551	31
185	-2534	31
204	-2534	31
200	-2534	31
210	-2534	31
203	-2534	31
149	-2534	31
118	-2551	31
177	-2534	31
230	-2534	31
228	-2534	31
200	-2551	31
174	-2551	31
148	-2534	31
66	-2534	31
-12	-2551	31
11	-2551	31
81	-2534	31
87	-2534	31
79	-2534	31
61	-2534	31
66	-2551	31
34	-2534	31
-27	-2551	31
-21	-2534	31
80	-2551	31
121	-2534	31
130	-2534	31
127	-2534	31
149	-2534	31
142	-2534	31
108	-2534	31
78	-2534	31
140	-2534	31
208	-2551	31
228	-2551	31
219	-2551	31
212	-2534	31
197	-2534	31
148	-2551	31
85	-2551	31
101	-2551	31
178	-2551	31
188	-2551	31
181	-2551	31
174	-2551	31
176	-2551	31
131	-2554	31
49	-2551	31
32	-2551	31
124	-2554	31
156	-2551	31
155	-2534	31
133	-2534	31
148	-2534	31
124	-2534	31
65	-2534	31
19	-2534	31
82	-2534	31
134	-2534	31
145	-2534	31
149	-2534	31
164	-2534	31
179	-2534	31
157	-2551	31
174	-2534	31
255	-2551	31
332	-2534	31
326	-2534	31
282	-2551	31
230	-2551	31
202	-2551	31
138	-2554	31
52	-2551	31
16	-2551	31
80	-2551	31
92	-2554	31
74	-2554	31
48	-2554	31
53	-2551	31
31	-2551	31
-22	-2551	31
-49	-2551	31
54	-2554	31
133	-2551	31
148	-2551	31
149	-2554	31
155	-2551	31
164	-2551	31
112	-2551	31
58	-2551	31
86	-2551	31
183	-2551	31
191	-2551	31
193	-2554	31
182	-2551	31
187	-2551	31
161	-2534	31
93	-2534	31
84	-2551	31
163	-2551	31
198	-2551	31
203	-2534	31
189	-2551	31
200	-2534	31
177	-2534	31
116	-2534	31
69	-2534	31
148	-2534	31
219	-2534	31
222	-2534	31
209	-2534	31
209	-2534	31
198	-2551	31
133	-2551	31
61	-2551	31
75	-2554	31
160	-2551	31
171	-2551	31
168	-2554	31
159	-2557	31
170	-2554	31
122	-2554	31
48	-2557	31
37	-2565	31
131	-2565	31
158	-2565	31
160	-2557	31
145	-2557	31
153	-2557	31
123	-2557	31
64	-2557	31
28	-2554	31
80	-2571	31
156	-2574	31
174	-2565	31
178	-2574	31
176	-2574	31
174	-2576	31
122	-2576	31
49	-2579	31
81	-2579	31
165	-2585	31
178	-2585	31
199	-2590	31
200	-2590	31
207	-2590	31
160	-2588	31
73	-2590	31
39	-2590	31
110	-2588	31
134	-2590	31
121	-2588	31
99	-2593	31
122	-2593	31
142	-2593	31
121	-2602	31
86	-2599	31
143	-2613	31
201	-2613	31
197	-2621	31
177	-2632	31
156	-2632	31
143	-2638	31
85	-2652	31
6	-2647	31
19	-2647	31
97	-2647	31
122	-2652	31
98	-2652	31
82	-2649	31
97	-2652	31
65	-2652	31
13	-2658	31
23	-2658	31
125	-2658	31
172	-2652	31
192	-2649	31
173	-2658	31
189	-2652	31
174	-2638	31
123	-2632	31
80	-2627	31
156	-2616	31
230	-2610	31
243	-2590	31
233	-2574	31
221	-2551	31
217	-2517	31
152	-2498	31
90	-2461	31
105	-2422	31
187	-2394	31
214	-2349	31
221	-2304	31
213	-2265	31
198	-2211	31
146	-2158	31
60	-2113	31
17	-2068	31
83	-2015	31
125	-1950	31
127	-1914	31
118	-1858	31
130	-1818	31
111	-1765	31
55	-1720	31
8	-1670	31
85	-1625	31
139	-1585	31
155	-1538	31
149	-1496	31
153	-1451	31
160	-1423	31
115	-1389	31
71	-1367	31
100	-1341	31
198	-1324	31
226	-1302	31
226	-1282	31
210	-1265	31
213	-1257	31
160	-1246	31
70	-1232	31
42	-1221	31
131	-1212	31
160	-1201	31
166	-1181	31
152	-1162	31
161	-1145	31
144	-1134	31
88	-1119	31
41	-1103	31
95	-1097	31
152	-1080	31
155	-1069	31
142	-1055	31
124	-1044	31
131	-1038	31
80	-1030	31
13	-1030	31
34	-1024	31
129	-1018	31
159	-1010	31
160	-1016	31
155	-1018	31
165	-1027	31
141	-1044	31
75	-1069	31
76	-1111	31
175	-1150	31
207	-1201	31
213	-1257	31
190	-1322	31
205	-1378	31
182	-1448	31
120	-1518	31
82	-1580	31
133	-1647	31
187	-1717	31
182	-1785	31
165	-1841	31
160	-1900	31
162	-1962	31
116	-2023	31
60	-2077	31
107	-2133	31
207	-2195	31
217	-2237	31
211	-2287	31
191	-2335	31
189	-2374	31
134	-2414	31
56	-2444	31
43	-2467	31
127	-2489	31
144	-2512	31
135	-2534	31
116	-2551	31
102	-2565	31
74	-2576	31
13	-2576	31
-29	-2576	31
44	-2574	31
125	-2557	31
161	-2551	31
167	-2534	31
162	-2529	31
164	-2512	31
112	-2506	31
51	-2506	31
83	-2489	31
172	-2461	31
196	-2436	31
198	-2414	31
185	-2394	31
208	-2388	31
185	-2374	31
106	-2349	31
83	-2335	31
174	-2310	31
189	-2287	31
181	-2282	31
150	-2279	31
147	-2273	31
127	-2273	31
58	-2276	31
10	-2273	31
65	-2273	31
151	-2265	31
168	-2273	31
164	-2279	31
172	-2287	31
170	-2298	31
137	-2310	31
83	-2329	31
108	-2338	31
198	-2349	31
223	-2360	31
218	-2377	31
209	-2391	31
206	-2414	31
158	-2414	31
93	-2422	31
54	-2430	31
128	-2436	31
162	-2436	31
149	-2444	31
127	-2453	31
123	-2453	31
94	-2458	31
32	-2458	31
-25	-2467	31
43	-2467	31
114	-2484	31
129	-2489	31
117	-2498	31
123	-2501	31
146	-2506	31
119	-2512	31
73	-2512	31
96	-2517	31
211	-2517	31
245	-2534	31
244	-2534	31
212	-2534	31
204	-2534	31
152	-2551	31
74	-2551	31
58	-2551	31
145	-2554	31
188	-2571	31
186	-2574	31
152	-2576	31
163	-2576	31
147	-2576	31
92	-2576	31
38	-2585	31
114	-2590	31
180	-2590	31
182	-2590	31
187	-2585	31
175	-2585	31
166	-2588	31
113	-2588	31
52	-2576	31
66	-2579	31
165	-2579	31
169	-2579	31
159	-2579	31
133	-2576	31
127	-2574	31
109	-2574	31
51	-2571	31
47	-2565	31
144	-2557	31
165	-2554	31
152	-2554	31
127	-2554	31
125	-2534	31
118	-2534	31
71	-2534	31
40	-2534	31
90	-2531	31
157	-2517	31
166	-2512	31
156	-2512	31
160	-2512	31
161	-2506	31
118	-2498	31
45	-2498	31
75	-2489	31
172	-2481	31
191	-2489	31
197	-2478	31
182	-2478	31
191	-2481	31
156	-2478	31
110	-2461	31
98	-2461	31
187	-2456	31
228	-2444	31
224	-2430	31
206	-2416	31
198	-2394	31
184	-2391	31
126	-2380	31
76	-2377	31
137	-2377	31
205	-2360	31
185	-2349	31
169	-2332	31
180	-2310	31
182	-2290	31
138	-2276	31
63	-2273	31
64	-2276	31
148	-2296	31
184	-2318	31
175	-2349	31
164	-2371	31
156	-2405	31
104	-2433	31
32	-2461	31
18	-2489	31
132	-2512	31
163	-2534	31
170	-2565	31
149	-2590	31
156	-2616	31
144	-2632	31
87	-2632	31
38	-2632	31
95	-2616	31
180	-2579	31
174	-2551	31
161	-2506	31
162	-2484	31
172	-2458	31
123	-2416	31
81	-2377	31
105	-2329	31
182	-2304	31
194	-2284	31
164	-2265	31
146	-2237	31
140	-2214	31
107	-2200	31
50	-2181	31
22	-2169	31
93	-2158	31
141	-2152	31
153	-2138	31
141	-2130	31
141	-2113	31
115	-2113	31
54	-2108	31
1	-2105	31
73	-2102	31
141	-2099	31
152	-2096	31
141	-2085	31
145	-2085	31
149	-2079	31
106	-2079	31
69	-2094	31
110	-2079	31
230	-2094	31
264	-2096	31
266	-2099	31
244	-2108	31
241	-2113	31
187	-2122	31
107	-2124	31
73	-2138	31
150	-2144	31
176	-2158	31
160	-2158	31
140	-2155	31
142	-2155	31
120	-2158	31
30	-2158	31
-22	-2169	31
73	-2167	31
162	-2169	31
163	-2169	31
144	-2169	31
148	-2169	31
170	-2169	31
118	-2169	31
54	-2169	31
78	-2169	31
156	-2169	31
158	-2169	31
148	-2169	31
121	-2169	31
113	-2169	31
66	-2169	31
-13	-2169	31
-29	-2169	31
75	-2181	31
117	-2192	31
127	-2197	31
134	-2195	31
161	-2203	31
162	-2206	31
108	-2206	31
64	-2211	31
99	-2214	31
166	-2214	31
177	-2217	31
174	-2217	31
183	-2220	31
186	-2220	31
153	-2225	31
92	-2214	31
109	-2217	31
194	-2220	31
210	-2220	31
210	-2214	31
200	-2214	31
213	-2214	31
181	-2214	31
118	-2220	31
108	-2225	31
192	-2220	31
230	-2228	31
228	-2228	31
204	-2220	31
198	-2220	31
165	-2217	31
105	-2214	31
45	-2214	31
94	-2211	31
160	-2214	31
162	-2203	31
146	-2211	31
129	-2203	31
129	-2203	31
85	-2203	31
25	-2206	31
36	-2206	31
126	-2206	31
171	-2203	31
166	-2211	31
145	-2211	31
159	-2206	31
119	-2211	31
50	-2206	31
31	-2214	31
139	-2220	31
177	-2228	31
182	-2237	31
179	-2234	31
179	-2237	31
162	-2237	31
99	-2245	31
44	-2242	31
94	-2248	31
147	-2251	31
152	-2251	31
141	-2254	31
138	-2259	31
150	-2262	31
123	-2262	31
82	-2262	31
111	-2262	31
202	-2265	31
215	-2265	31
206	-2262	31
175	-2256	31
169	-2254	31
123	-2256	31
60	-2256	31
44	-2254	31
125	-2256	31
170	-2248	31
168	-2245	31
141	-2245	31
155	-2242	31
136	-2231	31
76	-2237	31
21	-2231	31
98	-2234	31
181	-2228	31
194	-2237	31
187	-2234	31
167	-2228	31
184	-2225	31
138	-2228	31
82	-2214	31
82	-2214	31
159	-2214	31
184	-2214	31
186	-2217	31
155	-2214	31
151	-2220	31
124	-2223	31
55	-2220	31
23	-2223	31
108	-2225	31
167	-2228	31
176	-2228	31
171	-2231	31
195	-2228	31
182	-2231	31
99	-2228	31
34	-2237	31
84	-2237	31
141	-2234	31
147	-2228	31
131	-2231	31
117	-2231	31
114	-2228	31
76	-2228	31
25	-2231	31
37	-2231	31
123	-2231	31
147	-2228	31
150	-2231	31
138	-2223	31
169	-2225	31
133	-2228	31
69	-2228	31
55	-2228	31
160	-2225	31
194	-2228	31
192	-2225	31
191	-2231	31
198	-2231	31
198	-2228	31
140	-2225	31
94	-2225	31
146	-2231	31
230	-2234	31
247	-2231	31
243	-2231	31
248	-2231	31
235	-2231	31
167	-2237	31
80	-2231	31
79	-2228	31
165	-2223	31
185	-2225	31
174	-2223	31
149	-2225	31
155	-2234	31
129	-2228	31
81	-2242	31
48	-2245	31
155	-2256	31
226	-2265	31
220	-2259	31
198	-2273	31
186	-2262	31
139	-2262	31
64	-2256	31
-6	-2251	31
38	-2251	31
110	-2254	31
113	-2259	31
89	-2273	31
65	-2276	31
79	-2284	31
32	-2293	31
-33	-2298	31
-20	-2298	31
68	-2301	31
111	-2298	31
106	-2287	31
106	-2293	31
133	-2290	31
100	-2298	31
45	-2290	31
21	-2310	31
150	-2321	31
222	-2321	31
263	-2332	31
241	-2335	31
235	-2329	31
221	-2332	31
155	-2327	31
106	-2321	31
139	-2329	31
221	-2332	31
220	-2338	31
202	-2338	31
178	-2349	31
168	-2349	31
115	-2349	31
43	-2349	31
49	-2349	31
138	-2349	31
172	-2349	31
179	-2349	31
178	-2349	31
198	-2349	31
182	-2349	31
124	-2349	31
94	-2349	31
165	-2349	31
216	-2349	31
206	-2369	31
170	-2369	31
157	-2360	31
132	-2349	31
65	-2360	31
-3	-2349	31
52	-2369	31
147	-2377	31
171	-2383	31
168	-2394	31
161	-2391	31
162	-2391	31
113	-2380	31
54	-2374	31
62	-2377	31
152	-2360	31
171	-2374	31
163	-2360	31
137	-2369	31
139	-2369	31
104	-2377	31
42	-2391	31
29	-2399	31
101	-2405	31
147	-2416	31
144	-2416	31
121	-2416	31
136	-2405	31
141	-2399	31
89	-2391	31
42	-2380	31
112	-2349	31
179	-2360	31
183	-2349	31
171	-2360	31
160	-2371	31
170	-2391	31
120	-2399	31
55	-2399	31
60	-2399	31
158	-2394	31
178	-2391	31
168	-2374	31
147	-2360	31
160	-2360	31
135	-2360	31
68	-2371	31
54	-2377	31
160	-2388	31
227	-2394	31
237	-2394	31
219	-2399	31
210	-2394	31
193	-2391	31
131	-2383	31
74	-2377	31
102	-2377	31
164	-2374	31
187	-2374	31
180	-2377	31
172	-2374	31
179	-2374	31
155	-2374	31
107	-2374	31
122	-2385	31
208	-2380	31
225	-2383	31
218	-2385	31
202	-2377	31
207	-2380	31
161	-2377	31
80	-2374	31
31	-2369	31
100	-2383	31
125	-2388	31
108	-2394	31
106	-2399	31
121	-2399	31
106	-2394	31
44	-2394	31
-9	-2394	31
30	-2394	31
106	-2391	31
121	-2391	31
117	-2391	31
110	-2394	31
106	-2394	31
75	-2399	31
25	-2399	31
30	-2405	31
116	-2405	31
158	-2414	31
169	-2416	31
171	-2414	31
180	-2422	31
157	-2422	31
87	-2422	31
43	-2422	31
144	-2422	31
205	-2430	31
222	-2433	31
201	-2433	31
206	-2430	31
196	-2430	31
131	-2422	31
63	-2422	31
102	-2422	31
174	-2422	31
187	-2416	31
182	-2422	31
172	-2416	31
172	-2416	31
122	-2414	31
45	-2416	31
47	-2416	31
138	-2414	31
163	-2405	31
170	-2405	31
156	-2414	31
186	-2405	31
179	-2405	31
125	-2399	31
82	-2394	31
149	-2391	31
211	-2391	31
203	-2391	31
178	-2388	31
171	-2383	31
148	-2377	31
78	-2377	31
0	-2374	31
44	-2374	31
131	-2360	31
133	-2371	31
131	-2371	31
147	-2374	31
169	-2369	31
144	-2371	31
92	-2377	31
106	-2377	31
195	-2374	31
217	-2369	31
207	-2360	31
186	-2349	31
187	-2338	31
140	-2332	31
59	-2321	31
29	-2318	31
123	-2312	31
176	-2304	31
192	-2304	31
171	-2301	31
180	-2296	31
170	-2287	31
102	-2284	31
36	-2279	31
86	-2279	31
161	-2276	31
159	-2276	31
137	-2273	31
115	-2273	31
116	-2273	31
62	-2273	31
2	-2273	31
11	-2273	31
110	-2262	31
145	-2265	31
155	-2262	31
141	-2265	31
171	-2265	31
158	-2273	31
103	-2262	31
79	-2259	31
184	-2256	31
248	-2256	31
232	-2262	31
202	-2262	31
183	-2262	31
156	-2262	31
93	-2265	31
42	-2256	31
82	-2259	31
155	-2265	31
169	-2259	31
170	-2265	31
167	-2259	31
165	-2259	31
115	-2259	31
50	-2265	31
51	-2265	31
155	-2259	31
185	-2259	31
176	-2259	31
168	-2256	31
172	-2259	31
145	-2256	31
80	-2259	31
47	-2256	31
145	-2256	31
195	-2254	31
187	-2256	31
170	-2259	31
172	-2256	31
146	-2254	31
86	-2237	31
24	-2214	31
72	-2214	31
147	-2214	31
156	-2214	31
136	-2220	31
124	-2220	31
136	-2220	31
106	-2225	31
76	-2225	31
95	-2228	31
180	-2225	31
203	-2225	31
199	-2225	31
163	-2225	31
169	-2217	31
131	-2220	31
57	-2225	31
13	-2228	31
105	-2228	31
174	-2237	31
199	-2245	31
190	-2245	31
177	-2245	31
170	-2245	31
116	-2245	31
53	-2231	31
74	-2242	31
138	-2237	31
137	-2237	31
119	-2242	31
116	-2237	31
125	-2242	31
90	-2245	31
35	-2251	31
47	-2248	31
153	-2245	31
174	-2256	31
158	-2251	31
143	-2245	31
175	-2251	31
170	-2245	31
129	-2245	31
117	-2251	31
174	-2251	31
223	-2248	31
216	-2242	31
195	-2242	31
203	-2245	31
181	-2242	31
116	-2237	31
41	-2237	31
85	-2237	31
158	-2225	31
149	-2220	31
142	-2225	31
130	-2214	31
136	-2211	31
101	-2203	31
54	-2195	31
70	-2181	31
126	-2169	31
151	-2169	31
162	-2169	31
152	-2181	31
186	-2192	31
169	-2189	31
112	-2195	31
81	-2192	31
164	-2195	31
211	-2200	31
206	-2197	31
186	-2206	31
185	-2211	31
171	-2214	31
116	-2214	31
52	-2214	31
100	-2220	31
174	-2225	31
158	-2228	31
151	-2237	31
137	-2237	31
147	-2242	31
93	-2245	31
36	-2242	31
31	-2242	31
117	-2237	31
160	-2245	31
159	-2245	31
129	-2245	31
128	-2237	31
97	-2237	31
34	-2231	31
6	-2225	31
95	-2228	31
175	-2214	31
195	-2214	31
214	-2214	31
221	-2214	31
205	-2206	31
149	-2206	31
90	-2203	31
118	-2195	31
198	-2195	31
215	-2181	31
200	-2169	31
191	-2169	31
189	-2167	31
133	-2158	31
53	-2158	31
51	-2155	31
132	-2150	31
151	-2150	31
137	-2144	31
113	-2150	31
117	-2147	31
95	-2147	31
34	-2150	31
9	-2144	31
99	-2150	31
171	-2144	31
198	-2144	31
190	-2138	31
201	-2147	31
194	-2138	31
149	-2144	31
106	-2147	31
137	-2150	31
197	-2150	31
213	-2158	31
192	-2152	31
169	-2150	31
166	-2150	31
113	-2150	31
50	-2152	31
58	-2158	31
141	-2150	31
165	-2150	31
155	-2150	31
134	-2150	31
155	-2147	31
118	-2147	31
66	-2147	31
17	-2155	31
101	-2150	31
150	-2150	31
152	-2150	31
147	-2147	31
145	-2144	31
156	-2147	31
113	-2144	31
57	-2150	31
70	-2144	31
148	-2144	31
157	-2150	31
144	-2144	31
133	-2150	31
125	-2147	31
86	-2147	31
23	-2150	31
38	-2150	31
147	-2150	31
194	-2147	31
206	-2150	31
208	-2150	31
232	-2147	31
210	-2152	31
148	-2150	31
101	-2152	31
147	-2152	31
189	-2150	31
182	-2152	31
148	-2158	31
141	-2158	31
122	-2158	31
71	-2158	31
8	-2158	31
68	-2167	31
157	-2169	31
150	-2169	31
151	-2169	31
149	-2169	31
170	-2169	31
126	-2181	31
51	-2195	31
45	-2197	31
133	-2206	31
153	-2206	31
159	-2214	31
150	-2214	31
164	-2217	31
140	-2214	31
86	-2214	31
71	-2214	31
167	-2214	31
241	-2214	31
261	-2211	31
265	-2206	31
260	-2195	31
223	-2189	31
142	-2169	31
58	-2158	31
93	-2150	31
176	-2158	31
174	-2169	31
177	-2181	31
165	-2169	31
160	-2169	31
95	-2169	31
20	-2158	31
8	-2167	31
87	-2169	31
133	-2169	31
134	-2181	31
138	-2169	31
183	-2195	31
170	-2203	31
97	-2220	31
51	-2231	31
135	-2251	31
203	-2273	31
200	-2284	31
195	-2310	31
186	-2338	31
159	-2349	31
99	-2391	31
37	-2416	31
65	-2442	31
129	-2467	31
133	-2487	31
101	-2506	31
95	-2531	31
118	-2534	31
90	-2551	31
33	-2554	31
36	-2554	31
130	-2551	31
157	-2551	31
159	-2534	31
120	-2534	31
128	-2534	31
101	-2517	31
50	-2512	31
37	-2506	31
138	-2498	31
213	-2467	31
220	-2453	31
202	-2422	31
189		31
177		31
108		31
43		31
87		31
165		31
183		31
173		31
169		31
180		31
139		31
68		31
64		31
161		31
192		31
187		31
163		31
176		31
138		31
68		31
43		31
159		31
216		31
221		31
208		31
198		31
207		31
171		31
116		31
122		31
200		31
193		31
147		31
124		31
103		31
41		31
-29		31
-24		31
71		31
96		31
106		31
94		31
104		31
95		31
56		31
41		31
117		31
188		31
198		31
182		31
187		31
168		31
117		31
50		31
99		31
189		31
196		31
205		31
207		31
227		31
192		31
133		31
139		31
212		31
219		31
205		31
177		31
183		31
146		31
63		31
25		31
111		31
152		31
145		31
127		31
120		31
131		31
80		31
24		31
76		31
165		31
174		31
169		31
153		31
158		31
105		31
38		31
39		31
128		31
162		31
165		31
148		31
151		31
127		31
74		31
33		31
111		31
185		31
187		31
181		31
183		31
185		31
150		31
98		31
132		31
191		31
207		31
203		31
185		31
194		31
162		31
101		31
87		31
167		31
188		31
184		31
156		31
150		31
108		31
49		31
3		31
79		31
143		31
145		31
137		31
138		31
146		31
102		31
52		31
99		31
187		31
203		31
186		31
158		31
150		31
93		31
24		31
21		31
106		31
133		31
118		31
99		31
111		31
82		31
23		31
-15		31
78		31
158		31
177		31
168		31
176		31
176		31
121		31
61		31
99		31
178		31
193		31
191		31
193		31
201		31
161		31
110		31
116		31
216		31
241		31
245		31
210		31
209		31
182		31
127		31
81		31
117		31
174		31
169		31
139		31
137		31
130		31
74		31
12		31
51		31
148		31
160		31
163		31
166		31
190		31
162		31
102		31
114		31
222		31
273		31
288		31
275		31
278		31
244		31
153		31
86		31
141		31
168		31
133		31
89		31
62		31
32		31
-39		31
-106		31
-57		31
34		31
48		31
80		31
87		31
112		31
84		31
27		31
34		31
131		31
165		31
167		31
158		31
181		31
168		31
114		31
78		31
163		31
230		31
222		31
205		31
201		31
195		31
138		31
75		31
105		31
189		31
208		31
202		31
195		31
196		31
149		31
73		31
59		31
136		31
170		31
165		31
146		31
159		31
139		31
76		31
21		31
119		31
198		31
203		31
192		31
184		31
186		31
132		31
71		31
101		31
184		31
204		31
192		31
180		31
184		31
125		31
57		31
39		31
113		31
139		31
135		31
114		31
127		31
129		31
112		31
86		31
155		31
217		31
222		31
217		31
202		31
182		31
143		31
105		31
121		31
194		31
200		31
166		31
155		31
146		31
87		31
8		31
-5		31
90		31
125		31
125		31
111		31
124		31
88		31
36		31
-8		31
38		31
103		31
109		31
91		31
101		31
109		31
59		31
4		31
61		31
169		31
206		31
227		31
235		31
235		31
183		31
110		31
76		31
149		31
166		31
162		31
155		31
162		31
148		31
73		31
29		31
99		31
145		31
149		31
138		31
146		31
151		31
101		31
35		31
83		31
177		31
195		31
215		31
205		31
218		31
190		31
136		31
136		31
221		31
253		31
232		31
204		31
197		31
142		31
73		31
15		31
81		31
148		31
142		31
132		31
129		31
119		31
59		31
9		31
40		31
107		31
128		31
136		31
139		31
158		31
130		31
75		31
72		31
171		31
205		31
215		31
216		31
211		31
187		31
125		31
87		31
162		31
214		31
198		31
175		31
170		31
166		31
107		31
37		31
71		31
157		31
181		31
164		31
143		31
163		31
126		31
70		31
76		31
202		31
225		31
212		31
184		31
177		31
159		31
73		31
5		31
92		31
171		31
162		31
155		31
140		31
138		31
85		31
20		31
58		31
141		31
147		31
138		31
118		31
125		31
98		31
18		31
21		31
125		31
162		31
172		31
159		31
171		31
166		31
123		31
88		31
144		31
210		31
205		31
176		31
183		31
170		31
127		31
76		31
114		31
218		31
243		31
223		31
193		31
183		31
129		31
34		31
13		31
122		31
161		31
149		31
125		31
126		31
94		31
27		31
-17		31
73		31
137		31
136		31
134		31
131		31
135		31
75		31
0		31
40		31
138		31
147		31
139		31
116		31
126		31
92		31
42		31
55		31
164		31
205		31
217		31
211		31
223		31
219		31
162		31
116		31
178		31
244		31
230		31
193		31
181		31
182		31
130		31
78		31
113		31
192		31
206		31
182		31
159		31
149		31
91		31
17		31
2		31
93		31
125		31
132		31
122		31
138		31
130		31
64		31
26		31
125		31
209		31
230		31
227		31
214		31
221		31
164		31
100		31
133		31
216		31
233		31
210		31
177		31
174		31
124		31
68		31
63		31
149		31
183		31
184		31
156		31
166		31
139		31
60		31
1		31
78		31
148		31
140		31
130		31
109		31
109		31
62		31
4		31
29		31
103		31
117		31
113		31
103		31
108		31
75		31
15		31
23		31
134		31
161		31
164		31
149		31
175		31
169		31
120		31
87		31
140		31
198		31
210		31
192		31
184		31
184		31
142		31
87		31
112		31
198		31
215		31
210		31
192		31
185		31
133		31
54		31
36		31
123		31
162		31
165		31
144		31
150		31
125		31
64		31
22		31
110		31
170		31
164		31
167		31
176		31
184		31
135		31
84		31
129		31
226		31
240		31
252		31
241		31
244		31
186		31
116		31
79		31
142		31
168		31
149		31
118		31
108		31
98		31
34		31
-26		31
38		31
114		31
117		31
100		31
99		31
113		31
72		31
13		31
45		31
131		31
140		31
133		31
130		31
146		31
130		31
84		31
87		31
186		31
235		31
260		31
240		31
230		31
197		31
134		31
73		31
135		31
205		31
213		31
190		31
171		31
157		31
85		31
19		31
44		31
127		31
130		31
123		31
117		31
126		31
78		31
19		31
16		31
122		31
150		31
162		31
151		31
167		31
158		31
92		31
47		31
109		31
182		31
195		31
190		31
185		31
215		31
206		31
146		31
164		31
239		31
247		31
222		31
189		31
176		31
119		31
47		31
17		31
93		31
133		31
139		31
116		31
137		31
113		31
53		31
14		31
84		31
158		31
161		31
146		31
165		31
201		31
179		31
126		31
149		31
218		31
214		31
188		31
162		31
165		31
109		31
33		31
13		31
104		31
140		31
138		31
113		31
109		31
100		31
50		31
23		31
97		31
162		31
178		31
166		31
174		31
182		31
121		31
51		31
75		31
197		31
198		31
190		31
174		31
173		31
125		31
67		31
59		31
124		31
173		31
174		31
166		31
186		31
187		31
142		31
88		31
147		31
219		31
218		31
198		31
185		31
178		31
120		31
57		31
78		31
149		31
167		31
162		31
140		31
150		31
128		31
78		31
87		31
202		31
251		31
245		31
220		31
211		31
182		31
108		31
43		31
89		31
138		31
133		31
117		31
106		31
95		31
38		31
-29		31
8		31
111		31
142		31
161		31
159		31
189		31
168		31
118		31
110		31
184		31
220		31
224		31
183		31
188		31
163		31
101		31
40		31
68		31
119		31
105		31
94		31
82		31
89		31
50		31
4		31
34		31
128		31
170		31
148		31
139		31
145		31
102		31
48		31
46		31
162		31
186		31
185		31
174		31
176		31
151		31
84		31
42		31
106		31
164		31
174		31
163		31
142		31
148		31
97		31
36		31
51		31
135		31
165		31
166		31
166		31
185		31
166		31
115		31
93		31
166		31
195		31
191		31
187		31
198		31
192		31
125		31
65		31
137		31
190		31
201		31
205		31
221		31
233		31
182		31
110		31
106		31
175		31
177		31
153		31
121		31
103		31
52		31
-7		31
-27		31
39		31
69		31
82		31
63		31
88		31
114		31
121		31
125		31
198		31
256		31
257		31
223		31
200		31
202		31
139		31
61		31
79		31
167		31
166		31
151		31
125		31
111		31
85		31
23		31
9		31
98		31
126		31
138		31
118		31
138		31
133		31
86		31
53		31
133		31
241		31
263		31
255		31
249		31
262		31
235		31
174		31
179		31
256		31
248		31
230		31
186		31
165		31
109		31
1		31
-39		31
33		31
54		31
37		31
17		31
27		31
28		31
0		31
-20		31
52		31
142		31
157		31
157		31
163		31
163		31
132		31
85		31
103		31
182		31
202		31
208		31
206		31
212		31
180		31
130		31
134		31
229		31
245		31
238		31
215		31
217		31
213		31
189		31
162		31
183		31
227		31
211		31
182		31
151		31
124		31
87		31
21		31
10		31
57		31
68		31
61		31
46		31
50		31
32		31
-5		31
0		31
125		31
190		31
187		31
163		31
172		31
152		31
90		31
50		31
137		31
222		31
240		31
233		31
223		31
218		31
156		31
85		31
91		31
174		31
183		31
176		31
174		31
190		31
174		31
102		31
60		31
129		31
157		31
152		31
130		31
146		31
131		31
75		31
58		31
170		31
264		31
285		31
271		31
244		31
245		31
197		31
138		31
134		31
198		31
196		31
179		31
169		31
158		31
96		31
10		31
-41		31
7		31
10		31
4		31
-20		31
-16		31
-22		31
-65		31
-112		31
-54		31
32		31
39		31
55		31
67		31
90		31
63		31
23		31
53		31
141		31
160		31
175		31
169		31
190		31
167		31
114		31
103		31
192		31
255		31
257		31
242		31
287		31
340		31
322		31
261		31
297		31
348		31
328		31
283		31
242		31
217		31
132		31
40		31
17		31
63		31
72		31
78		31
65		31
69		31
57		31
7		31
-5		31
102		31
148		31
163		31
157		31
178		31
181		31
133		31
82		31
102		31
153		31
144		31
122		31
132		31
140		31
116		31
69		31
70		31
140		31
160		31
167		31
149		31
149		31
114		31
67		31
46		31
125		31
182		31
200		31
187		31
195		31
183		31
131		31
93		31
165		31
232		31
245		31
241		31
230		31
215		31
160		31
90		31
71		31
145		31
142		31
144		31
152		31
170		31
132		31
74		31
55		31
115		31
156		31
174		31
166		31
158		31
148		31
103		31
56		31
89		31
135		31
144		31
142		31
146		31
152		31
117		31
80		31
113		31
218		31
245		31
267		31
226		31
190		31
142		31
68		31
52		31
118		31
137		31
119		31
98		31
90		31
53		31
-24		31
-94		31
-52		31
23		31
31		31
45		31
59		31
97		31
90		31
65		31
119		31
241		31
286		31
280		31
250		31
240		31
198		31
131		31
99		31
173		31
220		31
212		31
174		31
166		31
119		31
54		31
-1		31
31		31
95		31
103		31
100		31
100		31
111		31
79		31
26		31
28		31
119		31
167		31
187		31
198		31
235		31
221		31
168		31
190		31
336		31
368		31
332		31
304		31
303		31
277		31
193		31
116		31
120		31
175		31
175		31
134		31
90		31
65		31
6		31
-10		31
69		31
232		31
282		31
292		31
305		31
300		31
262		31
176		31
106		31
118		31
110		31
105		31
111		31
93		31
29		31
-53		31
-112		31
-66		31
-12		31
-10		31
-19		31
-26		31
-4		31
-38		31
-43		31
78		31
254		31
348		31
390		31
351		31
329		31
274		31
227		31
227		31
264		31
248		31
214		31
146		31
83		31
9		31
-82		31
-153		31
-157		31
-122		31
-108		31
-104		31
-111		31
-91		31
-104		31
-98		31
-33		31
86		31
141		31
163		31
167		31
195		31
191		31
158		31
161		31
279		31
352		31
378		31
379		31
370		31
334		31
244		31
152		31
162		31
194		31
157		31
113		31
97		31
103		31
78		31
117		31
290		31
456		31
503		31
536		31
597		31
649		31
539		31
409		31
267		31
233		31
172		31
76		31
-37		31
-140		31
-212		31
-300		31
-371		31
-337		31
-264		31
-242		31
-227		31
-218		31
-133		31
-110		31
-104		31
-39		31
124		31
289		31
426		31
488		31
522		31
508		31
431		31
412		31
442		31
384		31
285		31
197		31
133		31
69		31
-8		31
-85		31
-94		31
-70		31
-96		31
-114		31
-113		31
-82		31
-87		31
-73		31
12		31
130		31
197		31
232		31
243		31
254		31
222		31
171		31
142		31
215		31
263		31
247		31
214		31
222		31
220		31
167		31
113		31
167		31
245		31
304		31
366		31
340		31
332		31
276		31
176		31
144		31
174		31
164		31
138		31
130		31
160		31
176		31
122		31
64		31
104		31
102		31
124		31
106		31
67		31
50		31
-20		31
-92		31
-40		31
44		31
68		31
56		31
40		31
65		31
74		31
94		31
192		31
327		31
388		31
397		31
355		31
317		31
207		31
68		31
-22		31
23		31
39		31
49		31
36		31
61		31
149		31
232		31
240		31
248		31
323		31
381		31
467		31
565		31
707		31
690		31
538		31
472		31
381		31
221		31
33		31
-122		31
-179		31
-281		31
-418		31
-511		31
-467		31
-439		31
-412		31
-425		31
-412		31
-377		31
-356		31
-336		31
-257		31
-127		31
-71		31
-19		31
33		31
86		31
112		31
106		31
145		31
262		31
338		31
362		31
362		31
389		31
372		31
326		31
294		31
380		31
422		31
413		31
388		31
370		31
347		31
287		31
233		31
259		31
326		31
326		31
300		31
304		31
333		31
314		31
239		31
206		31
271		31
291		31
274		31
225		31
207		31
148		31
99		31
158		31
327		31
392		31
382		31
330		31
255		31
188		31
96		31
42		31
101		31
204		31
210		31
147		31
90		31
97		31
151		31
200		31
172		31
198		31
178		31
87		31
-40		31
-144		31
-261		31
-399		31
-474		31
-430		31
-401		31
-353		31
-238		31
-112		31
37		31
174		31
213		31
302		31
345		31
319		31
285		31
239		31
203		31
109		31
5		31
-11		31
47		31
31		31
23		31
25		31
94		31
83		31
31		31
52		31
217		31
314		31
334		31
287		31
273		31
261		31
184		31
115		31
108		31
184		31
186		31
195		31
198		31
211		31
166		31
100		31
106		31
187		31
230		31
272		31
267		31
244		31
205		31
148		31
219		31
515		31
863		31
933		31
796		31
680		31
472		31
227		31
-39		31
-133		31
-41		31
69		31
101		31
60		31
-43		31
-197		31
-336		31
-356		31
-264		31
-230		31
-208		31
-208		31
-152		31
-100		31
-72		31
-23		31
168		31
261		31
254		31
241		31
208		31
135		31
20		31
-75		31
-64		31
7		31
46		31
93		31
119		31
114		31
54		31
-45		31
-93		31
-21		31
20		31
56		31
74		31
124		31
133		31
109		31
101		31
192		31
279		31
359		31
421		31
442		31
438		31
405		31
402		31
516		31
622		31
656		31
653		31
591		31
470		31
276		31
85		31
-36		31
-13		31
26		31
37		31
3		31
28		31
-67		31
-180		31
-212		31
-53		31
85		31
152		31
176		31
150		31
159		31
123		31
122		31
202		31
251		31
203		31
131		31
42		31
-3		31
-108		31
-204		31
-214		31
-109		31
-45		31
23		31
44		31
79		31
67		31
-3		31
-10		31
94		31
171		31
183		31
198		31
215		31
236		31
171		31
101		31
135		31
235		31
260		31
240		31
251		31
267		31
275		31
251		31
261		31
352		31
353		31
338		31
271		31
239		31
190		31
103		31
64		31
175		31
259		31
249		31
257		31
271		31
271		31
205		31
178		31
218		31
263		31
276		31
242		31
201		31
133		31
38		31
-53		31
-119		31
-69		31
-48		31
-19		31
82		31
183		31
169		31
123		31
61		31
105		31
103		31
73		31
30		31
10		31
12		31
-36		31
-92		31
-83		31
-21		31
-13		31
1		31
25		31
107		31
172		31
203		31
288		31
417		31
471		31
497		31
426		31
350		31
250		31
108		31
38		31
97		31
159		31
169		31
121		31
64		31
3		31
-95		31
-168		31
-134		31
-67		31
-55		31
-56		31
-53		31
-18		31
-4		31
11		31
81		31
203		31
223		31
225		31
209		31
230		31
205		31
153		31
139		31
256		31
320		31
282		31
247		31
234		31
238		31
168		31
75		31
115		31
195		31
190		31
166		31
139		31
158		31
113		31
42		31
41		31
135		31
178		31
180		31
172		31
193		31
184		31
146		31
158		31
318		31
422		31
426		31
394		31
366		31
376		31
293		31
192		31
166		31
155		31
111		31
40		31
5		31
-4		31
-56		31
-89		31
-72		31
4		31
23		31
17		31
-25		31
-19		31
-4		31
-44		31
-69		31
45		31
116		31
123		31
114		31
113		31
115		31
52		31
4		31
39		31
153		31
208		31
222		31
244		31
264		31
264		31
245		31
249		31
369		31
450		31
458		31
406		31
346		31
256		31
100		31
-4		31
28		31
40		31
30		31
11		31
-7		31
-33		31
-96		31
-131		31
-69		31
14		31
62		31
71		31
92		31
125		31
113		31
92		31
103		31
212		31
328		31
452		31
456		31
430		31
367		31
222		31
112		31
122		31
141		31
180		31
250		31
323		31
310		31
195		31
36		31
-2		31
39		31
-13		31
-55		31
-101		31
-128		31
-211		31
-285		31
-287		31
-150		31
-40		31
39		31
64		31
86		31
76		31
34		31
57		31
192		31
276		31
288		31
270		31
260		31
275		31
207		31
133		31
145		31
210		31
227		31
210		31
198		31
226		31
215		31
202		31
235		31
337		31
380		31
348		31
305		31
259		31
198		31
105		31
49		31
109		31
128		31
123		31
127		31
196		31
277		31
219		31
134		31
145		31
199		31
190		31
132		31
104		31
101		31
87		31
40		31
18		31
123		31
205		31
245		31
262		31
256		31
233		31
208		31
187		31
237		31
215		31
138		31
28		31
-62		31
-112		31
-192		31
-256		31
-217		31
-134		31
-116		31
-68		31
24		31
107		31
121		31
174		31
253		31
326		31
337		31
272		31
189		31
179		31
111		31
-4		31
-95		31
-39		31
58		31
123		31
138		31
166		31
182		31
160		31
122		31
143		31
217		31
225		31
202		31
178		31
187		31
146		31
100		31
165		31
332		31
455		31
601		31
609		31
572		31
459		31
284		31
138		31
80		31
23		31
-51		31
-128		31
-173		31
-178		31
-229		31
-236		31
-104		31
37		31
84		31
117		31
112		31
127		31
100		31
41		31
43		31
178		31
208		31
180		31
145		31
135		31
142		31
89		31
60		31
180		31
286		31
351		31
426		31
494		31
518		31
410		31
284		31
243		31
261		31
226		31
135		31
58		31
54		31
-17		31
-130		31
-139		31
-31		31
11		31
17		31
16		31
36		31
29		31
-36		31
-43		31
166		31
316		31
376		31
461		31
438		31
368		31
239		31
81		31
1		31
-5		31
-29		31
-81		31
-116		31
-135		31
-143		31
-151		31
-116		31
48		31
140		31
201		31
264		31
364		31
445		31
429		31
365		31
384		31
376		31
300		31
216		31
139		31
86		31
-17		31
-98		31
-45		31
69		31
124		31
146		31
135		31
160		31
180		31
222		31
238		31
317		31
360		31
344		31
355		31
402		31
397		31
370		31
330		31
263		31
176		31
52		31
-67		31
-149		31
-206		31
-287		31
-375		31
-363		31
-292		31
-230		31
-194		31
-123		31
-32		31
-31		31
-66		31
-67		31
57		31
152		31
221		31
247		31
276		31
269		31
219		31
194		31
277		31
348		31
335		31
305		31
309		31
288		31
227		31
162		31
192		31
301		31
339		31
349		31
346		31
358		31
343		31
317		31
309		31
351		31
332		31
271		31
156		31
79		31
-26		31
-121		31
-170		31
-116		31
-47		31
-55		31
-83		31
-52		31
9		31
24		31
13		31
67		31
189		31
283		31
320		31
271		31
282		31
196		31
66		31
38		31
178		31
282		31
332		31
301		31
225		31
157		31
45		31
-36		31
29		31
110		31
144		31
122		31
60		31
31		31
-27		31
-75		31
-64		31
38		31
93		31
96		31
86		31
82		31
58		31
10		31
32		31
146		31
178		31
215		31
224		31
222		31
227		31
192		31
186		31
297		31
418		31
478		31
492		31
470		31
425		31
307		31
162		31
101		31
150		31
257		31
257		31
164		31
127		31
-4		31
-145		31
-211		31
-146		31
-125		31
-137		31
-164		31
-133		31
-129		31
-158		31
-120		31
47		31
158		31
211		31
224		31
215		31
218		31
146		31
95		31
123		31
236		31
258		31
277		31
295		31
296		31
272		31
275		31
370		31
474		31
500		31
542		31
653		31
747		31
615		31
424		31
227		31
104		31
-2		31
-171		31
-317		31
-384		31
-400		31
-487		31
-566		31
-452		31
-241		31
-129		31
-67		31
-7		31
42		31
47		31
18		31
3		31
116		31
158		31
179		31
182		31
211		31
220		31
190		31
185		31
253		31
296		31
282		31
255		31
248		31
245		31
188		31
127		31
169		31
273		31
303		31
330		31
441		31
567		31
494		31
364		31
271		31
287		31
281		31
261		31
267		31
326		31
339		31
232		31
86		31
97		31
172		31
145		31
97		31
58		31
14		31
-71		31
-169		31
-198		31
-155		31
-129		31
-94		31
-83		31
-68		31
-98		31
-165		31
-159		31
-56		31
1		31
25		31
56		31
152		31
194		31
122		31
84		31
185		31
277		31
301		31
273		31
250		31
232		31
161		31
88		31
99		31
194		31
265		31
335		31
350		31
348		31
321		31
302		31
275		31
314		31
338		31
300		31
220		31
158		31
64		31
-35		31
-84		31
-9		31
58		31
65		31
85		31
143		31
188		31
186		31
133		31
124		31
191		31
186		31
207		31
280		31
370		31
368		31
271		31
168		31
123		31
69		31
13		31
-57		31
-66		31
-59		31
-41		31
-78		31
-64		31
-29		31
9		31
48		31
75		31
103		31
54		31
-29		31
-11		31
107		31
192		31
290		31
390		31
555		31
552		31
442		31
383		31
357		31
314		31
226		31
159		31
126		31
41		31
-96		31
-206		31
-162		31
-132		31
-145		31
-149		31
-136		31
-121		31
-165		31
-190		31
-123		31
28		31
101		31
109		31
123		31
176		31
148		31
100		31
110		31
244		31
329		31
353		31
401		31
453		31
431		31
335		31
228		31
227		31
257		31
235		31
222		31
241		31
222		31
160		31
106		31
146		31
310		31
429		31
424		31
359		31
324		31
205		31
65		31
12		31
117		31
203		31
269		31
325		31
263		31
159		31
31		31
-101		31
-47		31
2		31
-44		31
-96		31
-128		31
-159		31
-196		31
-252		31
-229		31
-124		31
-44		31
12		31
21		31
73		31
96		31
72		31
83		31
168		31
219		31
275		31
361		31
484		31
514		31
450		31
387		31
475		31
600		31
655		31
595		31
414		31
263		31
82		31
-88		31
-139		31
-70		31
-98		31
-191		31
-260		31
-278		31
-302		31
-352		31
-296		31
-148		31
-57		31
18		31
75		31
142		31
174		31
219		31
251		31
301		31
376		31
392		31
347		31
307		31
252		31
170		31
107		31
217		31
414		31
483		31
513		31
497		31
510		31
510		31
452		31
375		31
334		31
250		31
138		31
34		31
39		31
-11		31
-153		31
-246		31
-269		31
-251		31
-245		31
-250		31
-204		31
-174		31
-216		31
-263		31
-185		31
-54		31
7		31
85		31
150		31
219		31
230		31
177		31
168		31
368		31
491		31
488		31
434		31
402		31
368		31
372		31
346		31
328		31
307		31
193		31
105		31
20		31
-40		31
-120		31
-199		31
-166		31
-83		31
-63		31
-59		31
-50		31
8		31
37		31
66		31
147		31
297		31
370		31
375		31
352		31
329		31
283		31
206		31
122		31
158		31
235		31
225		31
214		31
222		31
184		31
151		31
117		31
185		31
396		31
587		31
711		31
686		31
552		31
347		31
125		31
-43		31
-38		31
-59		31
-86		31
-28		31
33		31
-42		31
-120		31
-229		31
-179		31
-84		31
-68		31
-7		31
-16		31
-8		31
-47		31
-117		31
-86		31
21		31
35		31
47		31
61		31
73		31
42		31
-26		31
-27		31
107		31
184		31
192		31
188		31
196		31
190		31
171		31
150		31
202		31
270		31
302		31
338		31
368		31
412		31
424		31
401		31
402		31
412		31
376		31
375		31
353		31
325		31
266		31
161		31
122		31
122		31
58		31
21		31
39		31
103		31
54		31
-62		31
-159		31
-128		31
-86		31
-100		31
-112		31
-75		31
-24		31
-31		31
-29		31
40		31
164		31
220		31
243		31
241		31
293		31
274		31
206		31
194		31
238		31
255		31
253		31
227		31
216		31
178		31
105		31
35		31
31		31
73		31
81		31
87		31
86		31
69		31
31		31
11		31
121		31
285		31
324		31
319		31
320		31
328		31
279		31
189		31
95		31
122		31
137		31
78		31
10		31
-11		31
-3		31
-86		31
-157		31
-71		31
24		31
76		31
95		31
162		31
239		31
193		31
106		31
117		31
204		31
253		31
302		31
346		31
342		31
259		31
117		31
1		31
31		31
64		31
86		31
95		31
144		31
141		31
114		31
80		31
177		31
278		31
265		31
264		31
275		31
258		31
182		31
105		31
71		31
219		31
337		31
364		31
368		31
333		31
209		31
69		31
10		31
25		31
-28		31
-98		31
-179		31
-198		31
-177		31
-199		31
-209		31
-120		31
-11		31
39		31
58		31
129		31
224		31
293		31
276		31
256		31
304		31
268		31
224		31
161		31
151		31
118		31
71		31
80		31
152		31
169		31
165		31
171		31
178		31
173		31
118		31
68		31
138		31
196		31
193		31
201		31
183		31
167		31
174		31
206		31
314		31
487		31
502		31
431		31
329		31
232		31
144		31
52		31
-8		31
25		31
70		31
161		31
232		31
268		31
247		31
168		31
50		31
54		31
131		31
173		31
213		31
187		31
121		31
-34		31
-176		31
-197		31
-159		31
-137		31
-128		31
-118		31
-59		31
5		31
53		31
93		31
197		31
267		31
300		31
379		31
440		31
381		31
279		31
135		31
106		31
85		31
35		31
0		31
-35		31
-44		31
-110		31
-141		31
-19		31
243		31
364		31
410		31
412		31
354		31
251		31
103		31
1		31
39		31
98		31
139		31
123		31
162		31
207		31
178		31
137		31
240		31
288		31
267		31
264		31
261		31
233		31
144		31
57		31
-6		31
57		31
75		31
45		31
99		31
224		31
219		31
115		31
55		31
120		31
150		31
202		31
253		31
332		31
368		31
249		31
115		31
52		31
41		31
25		31
-31		31
-67		31
-112		31
-177		31
-224		31
-157		31
11		31
34		31
47		31
70		31
149		31
259		31
267		31
233		31
272		31
310		31
338		31
310		31
293		31
274		31
170		31
49		31
85		31
92		31
51		31
37		31
66		31
125		31
97		31
48		31
72		31
190		31
199		31
229		31
342		31
538		31
602		31
520		31
485		31
518		31
412		31
240		31
61		31
-93		31
-199		31
-346		31
-452		31
-423		31
-316		31
-292		31
-274		31
-226		31
-189		31
-162		31
-88		31
87		31
274		31
365		31
380		31
370		31
440		31
483		31
517		31
590		31
637		31
563		31
404		31
296		31
254		31
153		31
40		31
-80		31
-83		31
-55		31
-49		31
-53		31
-50		31
-57		31
-144		31
-236		31
-224		31
-100		31
-41		31
-9		31
23		31
83		31
108		31
95		31
122		31
277		31
475		31
699		31
774		31
741		31
690		31
583		31
394		31
302		31
262		31
185		31
130		31
83		31
59		31
-9		31
-86		31
-93		31
-2		31
170		31
396		31
500		31
500		31
346		31
155		31
-6		31
-34		31
-72		31
-181		31
-289		31
-361		31
-434		31
-509		31
-487		31
-299		31
-72		31
-14		31
10		31
57		31
153		31
270		31
289		31
291		31
370		31
406		31
409		31
420		31
454		31
443		31
322		31
201		31
227		31
179		31
73		31
13		31
1		31
-55		31
-171		31
-226		31
-128		31
-10		31
102		31
244		31
461		31
651		31
590		31
447		31
382		31
375		31
314		31
249		31
248		31
219		31
98		31
-62		31
-205		31
-148		31
-139		31
-162		31
-165		31
-102		31
-41		31
-78		31
-104		31
-40		31
83		31
209		31
458		31
763		31
1074		31
1302		31
1137		31
871		31
728		31
478		31
233		31
-46		31
-213		31
-399		31
-556		31
-659		31
-634		31
-576		31
-539		31
-531		31
-482		31
-412		31
-372		31
-311		31
-169		31
-8		31
78		31
133		31
145		31
168		31
157		31
128		31
178		31
304		31
358		31
378		31
405		31
478		31
482		31
442		31
479		31
629		31
707		31
686		31
609		31
565		31
495		31
368		31
265		31
294		31
360		31
245		31
102		31
-47		31
-144		31
-224		31
-307		31
-325		31
-269		31
-236		31
-220		31
-181		31
-18		31
171		31
260		31
361		31
558		31
629		31
611		31
516		31
392		31
258		31
97		31
-32		31
-96		31
-129		31
-181		31
-232		31
-183		31
17		31
180		31
259		31
321		31
457		31
479		31
398		31
309		31
294		31
396		31
454		31
345		31
207		31
88		31
-101		31
-248		31
-352		31
-453		31
-533		31
-566		31
-430		31
-269		31
-147		31
-64		31
-13		31
51		31
137		31
222		31
294		31
398		31
398		31
368		31
340		31
390		31
384		31
269		31
187		31
194		31
201		31
187		31
141		31
116		31
105		31
57		31
35		31
196		31
442		31
477		31
375		31
291		31
184		31
69		31
-29		31
-28		31
23		31
44		31
57		31
47		31
93		31
91		31
30		31
9		31
158		31
309		31
393		31
421		31
433		31
382		31
310		31
228		31
217		31
264		31
259		31
217		31
174		31
158		31
110		31
83		31
113		31
174		31
121		31
127		31
260		31
359		31
205		31
54		31
-27		31
-92		31
-169		31
-263		31
-350		31
-356		31
-355		31
-395		31
-384		31
-256		31
-86		31
22		31
134		31
227		31
355		31
516		31
701		31
824		31
884		31
763		31
560		31
388		31
245		31
52		31
-137		31
-68		31
199		31
243		31
241		31
328		31
324		31
240		31
95		31
-49		31
-79		31
-71		31
-158		31
-226		31
-218		31
-193		31
-252		31
-336		31
-290		31
-157		31
-74		31
-28		31
14		31
100		31
195		31
348		31
513		31
619		31
641		31
582		31
478		31
396		31
256		31
112		31
-29		31
-63		31
-64		31
-93		31
-141		31
-150		31
-87		31
-86		31
-96		31
-40		31
89		31
149		31
209		31
269		31
400		31
492		31
492		31
552		31
731		31
744		31
605		31
479		31
355		31
221		31
38		31
-119		31
-181		31
-156		31
-166		31
-178		31
-173		31
-134		31
-128		31
-123		31
-78		31
17		31
85		31
117		31
182		31
361		31
486		31
431		31
407		31
525		31
593		31
602		31
611		31
699		31
630		31
502		31
442		31
337		31
134		31
-85		31
-168		31
-197		31
-232		31
-362		31
-528		31
-609		31
-517		31
-440		31
-399		31
-372		31
-307		31
-288		31
-280		31
-285		31
-140		31
48		31
251		31
416		31
438		31
442		31
445		31
565		31
763		31
777		31
637		31
482		31
304		31
125		31
-98		31
-276		31
-356		31
-322		31
-307		31
-321		31
-244		31
-114		31
15		31
150		31
233		31
382		31
438		31
430		31
406		31
379		31
397		31
438		31
515		31
564		31
578		31
554		31
498		31
430		31
442		31
426		31
329		31
335		31
392		31
346		31
222		31
78		31
-43		31
-177		31
-294		31
-372		31
-364		31
-356		31
-310		31
-245		31
-182		31
-194		31
-213		31
-190		31
-104		31
43		31
133		31
236		31
524		31
852		31
824		31
660		31
583		31
609		31
549		31
374		31
142		31
-75		31
-263		31
-480		31
-616		31
-572		31
-491		31
-424		31
-351		31
-201		31
-84		31
2		31
111		31
307		31
502		31
594		31
603		31
615		31
594		31
497		31
349		31
244		31
235		31
158		31
76		31
2		31
-15		31
-56		31
-153		31
-158		31
-26		31
129		31
320		31
393		31
382		31
346		31
222		31
98		31
93		31
138		31
141		31
95		31
37		31
-2		31
-85		31
-122		31
-88		31
49		31
229		31
483		31
707		31
877		31
887		31
759		31
662		31
625		31
555		31
391		31
217		31
53		31
-136		31
-377		31
-590		31
-623		31
-593		31
-538		31
-491		31
-419		31
-238		31
106		31
442		31
628		31
668		31
629		31
557		31
401		31
249		31
33		31
-167		31
-288		31
-266		31
-274		31
-300		31
-305		31
-214		31
-83		31
27		31
100		31
147		31
225		31
255		31
281		31
399		31
518		31
482		31
359		31
251		31
206		31
140		31
82		31
27		31
23		31
9		31
-43		31
-83		31
1		31
60		31
94		31
118		31
143		31
179		31
210		31
343		31
575		31
722		31
648		31
536		31
426		31
368		31
269		31
121		31
65		31
86		31
32		31
-46		31
6		31
86		31
97		31
124		31
124		31
122		31
125		31
139		31
109		31
117		31
121		31
31		31
-101		31
-98		31
-54		31
-76		31
-92		31
-129		31
-136		31
-102		31
41		31
262		31
454		31
502		31
510		31
451		31
461		31
445		31
317		31
269		31
340		31
296		31
126		31
-41		31
-116		31
-129		31
-165		31
-192		31
-194		31
-128		31
-94		31
-104		31
-96		31
-43		31
-22		31
27		31
178		31
356		31
394		31
368		31
295		31
272		31
218		31
141		31
70		31
113		31
130		31
64		31
22		31
15		31
50		31
40		31
-2		31
6		31
90		31
146		31
192		31
240		31
279		31
273		31
238		31
206		31
251		31
266		31
249		31
250		31
294		31
314		31
259		31
171		31
204		31
219		31
247		31
281		31
391		31
587		31
662		31
612		31
521		31
442		31
289		31
105		31
-26		31
-130		31
-295		31
-446		31
-468		31
-277		31
-10		31
168		31
215		31
358		31
420		31
355		31
303		31
278		31
223		31
125		31
31		31
-36		31
-106		31
-141		31
-178		31
-159		31
-141		31
-170		31
-217		31
-259		31
-246		31
-266		31
-322		31
-316		31
-183		31
-139		31
-80		31
-35		31
36		31
81		31
108		31
182		31
337		31
449		31
478		31
474		31
461		31
446		31
366		31
283		31
276		31
307		31
281		31
241		31
209		31
204		31
179		31
130		31
137		31
241		31
270		31
281		31
288		31
326		31
329		31
317		31
362		31
553		31
850		31
1179		31
1236		31
1043		31
776		31
437		31
103		31
-145		31
-221		31
-236		31
-241		31
-351		31
-443		31
-535		31
-631		31
-675		31
-580		31
-491		31
-399		31
-334		31
-248		31
-236		31
-300		31
-279		31
-123		31
0		31
55		31
183		31
368		31
563		31
621		31
629		31
730		31
1077		31
1308		31
1148		31
881		31
565		31
215		31
-140		31
-388		31
-480		31
-546		31
-556		31
-610		31
-614		31
-596		31
-537		31
-434		31
-188		31
-7		31
129		31
248		31
339		31
429		31
405		31
376		31
401		31
434		31
388		31
324		31
288		31
263		31
190		31
124		31
131		31
219		31
254		31
259		31
241		31
326		31
492		31
612		31
680		31
937		31
1097		31
889		31
653		31
406		31
158		31
-34		31
-205		31
-285		31
-321		31
-376		31
-446		31
-491		31
-423		31
-342		31
-269		31
-126		31
71		31
116		31
99		31
65		31
110		31
257		31
384		31
430		31
414		31
323		31
198		31
84		31
-23		31
-140		31
-261		31
-375		31
-401		31
-331		31
-296		31
-221		31
-121		31
18		31
235		31
413		31
550		31
759		31
871		31
917		31
846		31
664		31
470		31
210		31
-20		31
-114		31
-184		31
-242		31
-248		31
-229		31
-210		31
-225		31
-248		31
-167		31
-32		31
71		31
109		31
148		31
215		31
291		31
373		31
486		31
647		31
682		31
672		31
665		31
738		31
679		31
449		31
292		31
265		31
258		31
196		31
95		31
33		31
-79		31
-221		31
-321		31
-339		31
-240		31
-161		31
-134		31
-117		31
-88		31
-81		31
-59		31
-39		31
51		31
121		31
101		31
49		31
37		31
62		31
177		31
356		31
517		31
520		31
492		31
401		31
288		31
184		31
52		31
-62		31
-104		31
-129		31
-170		31
-20		31
345		31
635		31
601		31
447		31
292		31
175		31
51		31
-91		31
-225		31
-253		31
-312		31
-321		31
-236		31
-75		31
63		31
172		31
240		31
274		31
281		31
255		31
200		31
206		31
226		31
160		31
98		31
32		31
25		31
0		31
61		31
382		31
828		31
932		31
824		31
656		31
478		31
360		31
227		31
99		31
37		31
-19		31
-186		31
-322		31
-352		31
-356		31
-385		31
-418		31
-340		31
-185		31
-88		31
-9		31
42		31
67		31
60		31
44		31
59		31
166		31
240		31
292		31
283		31
292		31
278		31
217		31
184		31
232		31
255		31
253		31
280		31
401		31
579		31
665		31
637		31
578		31
525		31
446		31
350		31
203		31
106		31
-5		31
-98		31
-127		31
-78		31
-37		31
-29		31
-57		31
-84		31
-116		31
-166		31
-182		31
-115		31
-19		31
60		31
131		31
236		31
312		31
280		31
219		31
221		31
310		31
499		31
804		31
869		31
715		31
583		31
350		31
101		31
-24		31
-157		31
-291		31
-427		31
-503		31
-552		31
-556		31
-500		31
-319		31
-101		31
28		31
167		31
309		31
459		31
580		31
688		31
770		31
741		31
568		31
317		31
101		31
-74		31
-229		31
-401		31
-475		31
-480		31
-503		31
-428		31
-343		31
-150		31
111		31
344		31
445		31
523		31
536		31
484		31
396		31
294		31
217		31
139		31
29		31
-4		31
12		31
-54		31
-72		31
-46		31
60		31
113		31
123		31
166		31
299		31
406		31
470		31
502		31
548		31
552		31
459		31
380		31
415		31
412		31
358		31
276		31
179		31
117		31
9		31
-110		31
-147		31
-92		31
-56		31
37		31
237		31
470		31
528		31
447		31
434		31
517		31
498		31
370		31
233		31
122		31
3		31
-229		31
-393		31
-357		31
-339		31
-320		31
-240		31
-68		31
-14		31
-16		31
-27		31
-14		31
95		31
86		31
101		31
100		31
98		31
35		31
-110		31
-129		31
-4		31
68		31
126		31
211		31
374		31
458		31
394		31
312		31
265		31
227		31
123		31
6		31
-67		31
-125		31
-176		31
-260		31
-234		31
-83		31
18		31
97		31
209		31
326		31
322		31
319		31
362		31
492		31
747		31
961		31
876		31
763		31
602		31
348		31
150		31
30		31
-36		31
-162		31
-256		31
-334		31
-356		31
-318		31
-280		31
-190		31
-64		31
12		31
75		31
235		31
572		31
933		31
1127		31
1032		31
889		31
711		31
439		31
146		31
-86		31
-296		31
-491		31
-645		31
-677		31
-560		31
-362		31
-244		31
-177		31
-66		31
-85		31
-80		31
18		31
149		31
207		31
233		31
221		31
178		31
114		31
15		31
-37		31
-27		31
2		31
49		31
45		31
63		31
141		31
222		31
245		31
316		31
387		31
393		31
381		31
390		31
389		31
313		31
194		31
129		31
149		31
151		31
162		31
153		31
143		31
94		31
55		31
65		31
181		31
289		31
421		31
605		31
744		31
796		31
690		31
478		31
385		31
263		31
140		31
27		31
-96		31
-166		31
-224		31
-189		31
-59		31
15		31
19		31
33		31
7		31
41		31
-3		31
-96		31
-128		31
-125		31
-174		31
-114		31
-13		31
67		31
103		31
116		31
137		31
222		31
310		31
360		31
446		31
580		31
546		31
384		31
247		31
206		31
258		31
189		31
49		31
-112		31
-183		31
-277		31
-356		31
-392		31
-300		31
-226		31
-198		31
-137		31
-51		31
14		31
75		31
162		31
338		31
510		31
609		31
575		31
499		31
418		31
272		31
124		31
33		31
18		31
-11		31
6		31
27		31
51		31
32		31
14		31
40		31
135		31
226		31
263		31
274		31
282		31
277		31
305		31
391		31
664		31
889		31
867		31
738		31
529		31
300		31
46		31
-221		31
-348		31
-425		31
-475		31
-472		31
-378		31
-171		31
-104		31
-88		31
-56		31
99		31
175		31
211		31
227		31
208		31
159		31
83		31
79		31
172		31
253		31
296		31
344		31
357		31
328		31
214		31
103		31
121		31
207		31
284		31
457		31
525		31
442		31
260		31
47		31
-93		31
-112		31
-130		31
-146		31
-194		31
-253		31
-252		31
-227		31
-162		31
29		31
175		31
211		31
255		31
340		31
437		31
442		31
359		31
304		31
269		31
181		31
109		31
89		31
98		31
79		31
23		31
-44		31
29		31
84		31
113		31
140		31
179		31
184		31
174		31
150		31
199		31
324		31
554		31
751		31
683		31
564		31
426		31
268		31
179		31
85		31
-57		31
-180		31
-271		31
-326		31
-348		31
-307		31
-201		31
-91		31
-29		31
4		31
-15		31
38		31
36		31
32		31
114		31
360		31
553		31
542		31
510		31
533		31
518		31
384		31
263		31
345		31
502		31
408		31
268		31
186		31
119		31
76		31
-27		31
-162		31
-229		31
-292		31
-379		31
-433		31
-417		31
-368		31
-371		31
-364		31
-263		31
-149		31
-30		31
43		31
149		31
299		31
502		31
658		31
684		31
701		31
663		31
567		31
458		31
372		31
227		31
89		31
3		31
-23		31
-57		31
-21		31
37		31
98		31
116		31
98		31
163		31
398		31
530		31
482		31
404		31
310		31
223		31
155		31
137		31
181		31
223		31
124		31
-21		31
-117		31
-106		31
-75		31
105		31
414		31
681		31
700		31
542		31
345		31
181		31
4		31
-217		31
-412		31
-475		31
-450		31
-524		31
-580		31
-491		31
-351		31
-206		31
-96		31
48		31
202		31
322		31
408		31
421		31
409		31
353		31
268		31
170		31
213		31
214		31
212		31
264		31
374		31
406		31
309		31
207		31
204		31
214		31
178		31
137		31
113		31
153		31
199		31
232		31
312		31
398		31
352		31
245		31
134		31
76		31
-13		31
-141		31
-224		31
-157		31
-28		31
134		31
280		31
456		31
557		31
536		31
500		31
550		31
609		31
546		31
365		31
171		31
-10		31
-189		31
-368		31
-474		31
-467		31
-439		31
-356		31
-159		31
31		31
59		31
67		31
102		31
232		31
289		31
344		31
381		31
408		31
375		31
296		31
206		31
150		31
144		31
34		31
-94		31
-164		31
-188		31
-230		31
-272		31
-251		31
-174		31
-149		31
-122		31
-81		31
2		31
49		31
119		31
338		31
587		31
665		31
597		31
500		31
450		31
343		31
240		31
134		31
100		31
116		31
76		31
35		31
21		31
-2		31
-29		31
-40		31
24		31
148		31
206		31
250		31
288		31
382		31
431		31
442		31
532		31
835		31
1019		31
874		31
682		31
513		31
297		31
114		31
-37		31
-96		31
-139		31
-148		31
-132		31
-192		31
-217		31
-269		31
-343		31
-302		31
-245		31
-169		31
-81		31
16		31
108		31
271		31
557		31
657		31
609		31
544		31
485		31
431		31
342		31
106		31
-174		31
-418		31
-546		31
-614		31
-629		31
-588		31
-522		31
-423		31
-378		31
-307		31
-89		31
153		31
269		31
340		31
354		31
357		31
328		31
285		31
285		31
366		31
415		31
407		31
375		31
375		31
337		31
287		31
240		31
290		31
348		31
352		31
328		31
326		31
401		31
441		31
429		31
392		31
396		31
322		31
204		31
138		31
123		31
81		31
17		31
-16		31
126		31
226		31
254		31
235		31
203		31
111		31
-53		31
-192		31
-227		31
-92		31
143		31
309		31
320		31
260		31
168		31
56		31
7		31
20		31
-34		31
-104		31
-188		31
-211		31
-209		31
-206		31
-174		31
-31		31
82		31
134		31
168		31
252		31
342		31
404		31
467		31
547		31
573		31
537		31
455		31
324		31
191		31
23		31
-83		31
-56		31
36		31
12		31
21		31
9		31
27		31
0		31
-80		31
-101		31
-71		31
-14		31
-25		31
-44		31
-18		31
-2		31
2		31
-5		31
136		31
337		31
502		31
565		31
529		31
499		31
375		31
243		31
187		31
192		31
196		31
187		31
159		31
233		31
328		31
368		31
325		31
312		31
278		31
210		31
107		31
-4		31
-13		31
41		31
152		31
286		31
248		31
182		31
99		31
-16		31
-118		31
-264		31
-364		31
-385		31
-313		31
-290		31
-253		31
-186		31
-106		31
-84		31
-64		31
2		31
145		31
230		31
237		31
195		31
228		31
261		31
239		31
219		31
274		31
309		31
279		31
268		31
292		31
340		31
348		31
326		31
330		31
399		31
414		31
389		31
300		31
238		31
168		31
131		31
188		31
286		31
263		31
219		31
170		31
141		31
111		31
34		31
-63		31
-61		31
-10		31
7		31
-23		31
-10		31
141		31
390		31
529		31
527		31
564		31
561		31
520		31
405		31
300		31
128		31
-68		31
-215		31
-322		31
-409		31
-471		31
-490		31
-427		31
-350		31
-263		31
-197		31
-86		31
47		31
166		31
309		31
461		31
553		31
594		31
564		31
557		31
565		31
418		31
293		31
136		31
-6		31
-164		31
-263		31
-337		31
-357		31
-312		31
-240		31
-167		31
-102		31
-50		31
-13		31
32		31
135		31
259		31
327		31
393		31
444		31
441		31
410		31
352		31
354		31
390		31
370		31
341		31
290		31
267		31
190		31
119		31
104		31
176		31
252		31
297		31
321		31
350		31
296		31
206		31
177		31
253		31
354		31
421		31
348		31
216		31
98		31
-89		31
-232		31
-274		31
-201		31
-159		31
-125		31
-85		31
2		31
7		31
-9		31
102		31
217		31
229		31
179		31
74		31
44		31
21		31
7		31
62		31
172		31
191		31
140		31
73		31
66		31
115		31
111		31
89		31
93		31
163		31
160		31
122		31
112		31
188		31
219		31
166		31
120		31
127		31
90		31
86		31
88		31
121		31
176		31
190		31
160		31
195		31
232		31
218		31
184		31
181		31
193		31
134		31
59		31
41		31
107		31
165		31
198		31
183		31
215		31
202		31
159		31
174		31
288		31
293		31
256		31
219		31
200		31
169		31
93		31
54		31
117		31
174		31
181		31
184		31
195		31
188		31
108		31
17		31
-14		31
66		31
165		31
237		31
191		31
187		31
149		31
92		31
57		31
117		31
166		31
212		31
314		31
375		31
390		31
369		31
275		31
233		31
210		31
114		31
-33		31
-159		31
-165		31
-198		31
-229		31
-169		31
-40		31
17		31
31		31
62		31
85		31
58		31
5		31
-28		31
38		31
81		31
44		31
2		31
44		31
58		31
7		31
-51		31
27		31
96		31
144		31
196		31
249		31
331		31
396		31
418		31
405		31
449		31
442		31
408		31
356		31
297		31
224		31
192		31
179		31
212		31
202		31
169		31
112		31
76		31
29		31
-12		31
-27		31
58		31
167		31
212		31
319		31
458		31
483		31
368		31
251		31
137		31
83		31
38		31
48		31
70		31
113		31
65		31
-58		31
-11		31
113		31
136		31
127		31
41		31
1		31
-91		31
-199		31
-273		31
-260		31
-174		31
-109		31
-21		31
25		31
61		31
60		31
41		31
110		31
267		31
362		31
399		31
438		31
442		31
425		31
436		31
424		31
402		31
318		31
207		31
91		31
-10		31
-136		31
-238		31
-335		31
-303		31
-222		31
-153		31
-11		31
118		31
227		31
236		31
210		31
287		31
406		31
434		31
458		31
440		31
419		31
342		31
211		31
101		31
73		31
64		31
36		31
12		31
50		31
105		31
114		31
117		31
209		31
284		31
280		31
304		31
430		31
706		31
792		31
655		31
529		31
380		31
208		31
8		31
-168		31
-292		31
-438		31
-576		31
-644		31
-453		31
-159		31
-14		31
36		31
153		31
201		31
204		31
182		31
198		31
191		31
129		31
51		31
14		31
-5		31
-110		31
-179		31
-182		31
-67		31
4		31
61		31
113		31
176		31
202		31
171		31
178		31
274		31
340		31
370		31
395		31
481		31
583		31
556		31
453		31
424		31
426		31
388		31
303		31
223		31
156		31
98		31
37		31
21		31
94		31
163		31
251		31
319		31
333		31
275		31
170		31
45		31
13		31
-59		31
-129		31
-205		31
-205		31
-199		31
-197		31
-108		31
23		31
115		31
155		31
166		31
183		31
247		31
285		31
269		31
260		31
266		31
245		31
249		31
190		31
168		31
109		31
8		31
-72		31
-114		31
-135		31
-124		31
-79		31
20		31
107		31
118		31
145		31
255		31
318		31
335		31
329		31
299		31
241		31
123		31
-11		31
-58		31
24		31
23		31
10		31
36		31
192		31
289		31
250		31
244		31
309		31
337		31
291		31
260		31
213		31
150		31
69		31
-69		31
-104		31
-69		31
-29		31
20		31
69		31
185		31
275		31
287		31
359		31
468		31
458		31
394		31
345		31
388		31
310		31
183		31
111		31
113		31
73		31
-2		31
-72		31
-120		31
-128		31
-157		31
-123		31
85		31
329		31
393		31
359		31
317		31
224		31
99		31
-52		31
-114		31
-40		31
-22		31
-59		31
-118		31
-106		31
-106		31
-145		31
-157		31
-52		31
17		31
82		31
96		31
114		31
152		31
159		31
189		31
277		31
375		31
396		31
382		31
345		31
334		31
269		31
199		31
178		31
230		31
300		31
353		31
382		31
414		31
332		31
232		31
198		31
271		31
261		31
177		31
97		31
33		31
-40		31
-147		31
-179		31
-137		31
-59		31
10		31
90		31
153		31
209		31
203		31
161		31
166		31
333		31
569		31
660		31
565		31
426		31
249		31
127		31
40		31
-10		31
-22		31
48		31
148		31
168		31
111		31
-5		31
-106		31
-98		31
-89		31
-111		31
-183		31
-230		31
-315		31
-412		31
-416		31
-361		31
-170		31
-26		31
58		31
130		31
207		31
245		31
241		31
254		31
326		31
327		31
303		31
241		31
217		31
216		31
195		31
178		31
223		31
262		31
258		31
218		31
203		31
226		31
196		31
195		31
251		31
376		31
444		31
465		31
447		31
454		31
445		31
425		31
430		31
457		31
408		31
296		31
133		31
32		31
-16		31
-58		31
-51		31
68		31
233		31
278		31
205		31
125		31
43		31
-75		31
-190		31
-260		31
-218		31
-222		31
-198		31
-142		31
-96		31
-92		31
-45		31
-53		31
25		31
122		31
191		31
279		31
313		31
251		31
125		31
29		31
50		31
91		31
78		31
84		31
125		31
163		31
105		31
44		31
82		31
250		31
340		31
347		31
314		31
291		31
228		31
129		31
93		31
142		31
178		31
162		31
148		31
185		31
221		31
221		31
131		31
142		31
233		31
263		31
275		31
285		31
291		31
230		31
121		31
40		31
32		31
5		31
48		31
102		31
147		31
164		31
149		31
144		31
218		31
278		31
284		31
196		31
122		31
42		31
-62		31
-136		31
-112		31
-51		31
-26		31
9		31
32		31
52		31
28		31
24		31
64		31
138		31
141		31
112		31
82		31
100		31
95		31
53		31
51		31
160		31
227		31
244		31
261		31
314		31
347		31
290		31
241		31
255		31
263		31
211		31
158		31
165		31
176		31
194		31
268		31
332		31
405		31
362		31
273		31
190		31
124		31
20		31
-43		31
-9		31
37		31
6		31
-29		31
-52		31
-16		31
38		31
90		31
238		31
398		31
458		31
440		31
366		31
250		31
133		31
12		31
-139		31
-199		31
-158		31
-169		31
-106		31
8		31
133		31
178		31
174		31
189		31
272		31
290		31
267		31
275		31
346		31
391		31
350		31
202		31
121		31
86		31
16		31
-63		31
-145		31
-178		31
-292		31
-411		31
-400		31
-248		31
-134		31
-17		31
70		31
160		31
208		31
230		31
279		31
373		31
431		31
479		31
475		31
414		31
324		31
201		31
106		31
106		31
147		31
128		31
108		31
79		31
78		31
50		31
22		31
57		31
170		31
251		31
321		31
360		31
398		31
376		31
320		31
294		31
323		31
351		31
360		31
390		31
376		31
266		31
165		31
123		31
208		31
286		31
228		31
111		31
44		31
1		31
-87		31
-197		31
-261		31
-198		31
-137		31
-75		31
-68		31
-13		31
29		31
11		31
4		31
35		31
97		31
165		31
245		31
343		31
331		31
215		31
84		31
41		31
30		31
-35		31
-112		31
-168		31
-169		31
-179		31
-166		31
-48		31
280		31
541		31
684		31
690		31
600		31
458		31
292		31
171		31
144		31
80		31
-55		31
-192		31
-288		31
-302		31
-269		31
-186		31
-45		31
130		31
221		31
300		31
353		31
373		31
335		31
228		31
203		31
243		31
230		31
188		31
152		31
171		31
160		31
105		31
59		31
128		31
197		31
223		31
245		31
309		31
425		31
500		31
637		31
881		31
929		31
763		31
575		31
353		31
138		31
-122		31
-363		31
-485		31
-464		31
-362		31
-202		31
-69		31
6		31
-8		31
-41		31
-84		31
-41		31
4		31
50		31
135		31
223		31
223		31
124		31
64		31
68		31
82		31
81		31
106		31
103		31
87		31
20		31
-64		31
-98		31
-34		31
-21		31
-47		31
-68		31
-32		31
-11		31
6		31
138		31
401		31
606		31
658		31
572		31
430		31
269		31
103		31
-31		31
-59		31
-28		31
-58		31
-47		31
-4		31
28		31
56		31
89		31
152		31
269		31
314		31
310		31
275		31
286		31
296		31
305		31
322		31
387		31
396		31
348		31
270		31
222		31
218		31
224		31
284		31
374		31
370		31
243		31
112		31
9		31
-53		31
-137		31
-248		31
-261		31
-204		31
-218		31
-209		31
-153		31
-22		31
65		31
110		31
202		31
415		31
564		31
602		31
603		31
583		31
621		31
485		31
227		31
114		31
36		31
-80		31
-189		31
-264		31
-243		31
-140		31
-11		31
97		31
189		31
187		31
139		31
84		31
42		31
-51		31
-153		31
-232		31
-213		31
-209		31
-218		31
-196		31
-141		31
-60		31
-12		31
78		31
225		31
344		31
375		31
378		31
380		31
413		31
390		31
351		31
336		31
341		31
319		31
268		31
202		31
137		31
53		31
33		31
84		31
257		31
339		31
310		31
292		31
258		31
220		31
180		31
102		31
83		31
107		31
130		31
235		31
337		31
445		31
458		31
409		31
431		31
500		31
474		31
336		31
133		31
-23		31
-227		31
-409		31
-458		31
-294		31
-27		31
159		31
183		31
205		31
208		31
110		31
8		31
-26		31
-22		31
-115		31
-227		31
-306		31
-285		31
-266		31
-229		31
-89		31
147		31
276		31
327		31
334		31
345		31
322		31
247		31
204		31
241		31
290		31
324		31
395		31
475		31
442		31
331		31
190		31
135		31
145		31
100		31
59		31
34		31
51		31
11		31
-96		31
-146		31
-71		31
-7		31
50		31
82		31
140		31
167		31
160		31
185		31
278		31
335		31
384		31
449		31
514		31
483		31
337		31
170		31
93		31
105		31
66		31
108		31
281		31
428		31
381		31
279		31
201		31
197		31
116		31
18		31
-35		31
-7		31
75		31
119		31
72		31
137		31
168		31
51		31
-31		31
-70		31
-13		31
81		31
172		31
149		31
100		31
38		31
-32		31
-73		31
-117		31
-193		31
-271		31
-287		31
-201		31
-137		31
-136		31
-106		31
-35		31
48		31
118		31
158		31
281		31
332		31
338		31
302		31
260		31
229		31
185		31
142		31
165		31
236		31
275		31
297		31
319		31
359		31
347		31
305		31
273		31
316		31
331		31
352		31
372		31
404		31
380		31
346		31
337		31
341		31
286		31
204		31
100		31
20		31
-47		31
-156		31
-229		31
-164		31
36		31
276		31
434		31
461		31
442		31
347		31
276		31
221		31
172		31
35		31
-127		31
-294		31
-411		31
-427		31
-412		31
-360		31
-171		31
54		31
174		31
247		31
384		31
440		31
389		31
274		31
227		31
223		31
159		31
64		31
-13		31
-52		31
-117		31
-158		31
-91		31
80		31
157		31
179		31
210		31
324		31
396		31
362		31
303		31
302		31
283		31
234		31
177		31
115		31
50		31
-31		31
-79		31
-51		31
-38		31
-31		31
-24		31
-16		31
3		31
-1		31
12		31
115		31
326		31
426		31
478		31
529		31
593		31
552		31
408		31
258		31
255		31
196		31
49		31
-63		31
-137		31
-128		31
-123		31
-127		31
-74		31
61		31
195		31
325		31
458		31
567		31
575		31
494		31
401		31
370		31
264		31
121		31
1		31
-98		31
-222		31
-356		31
-392		31
-267		31
-88		31
115		31
201		31
275		31
300		31
249		31
167		31
108		31
100		31
41		31
-14		31
-74		31
-116		31
-137		31
-104		31
30		31
207		31
257		31
273		31
263		31
277		31
224		31
145		31
92		31
95		31
117		31
114		31
88		31
129		31
161		31
139		31
117		31
159		31
239		31
243		31
243		31
259		31
345		31
381		31
387		31
409		31
455		31
447		31
409		31
314		31
254		31
137		31
-25		31
-121		31
-97		31
-48		31
-74		31
-69		31
-3		31
82		31
145		31
95		31
139		31
195		31
132		31
67		31
2		31
29		31
4		31
-57		31
-79		31
-1		31
35		31
81		31
109		31
108		31
82		31
33		31
-2		31
80		31
124		31
119		31
172		31
270		31
347		31
376		31
418		31
430		31
421		31
344		31
239		31
125		31
31		31
-74		31
-209		31
-225		31
-122		31
-50		31
35		31
136		31
318		31
405		31
393		31
423		31
465		31
426		31
356		31
251		31
156		31
91		31
-22		31
-126		31
-112		31
-9		31
43		31
46		31
19		31
-3		31
-25		31
-40		31
5		31
153		31
217		31
230		31
288		31
337		31
374		31
410		31
322		31
325		31
313		31
252		31
174		31
53		31
-64		31
-208		31
-340		31
-342		31
-186		31
-65		31
91		31
255		31
393		31
441		31
398		31
356		31
354		31
312		31
223		31
153		31
89		31
-55		31
-159		31
-161		31
-64		31
-15		31
-15		31
9		31
54		31
140		31
189		31
151		31
219		31
307		31
267		31
207		31
102		31
48		31
-8		31
-55		31
-54		31
6		31
78		31
145		31
243		31
309		31
256		31
179		31
115		31
197		31
272		31
296		31
242		31
180		31
177		31
85		31
69		31
212		31
340		31
346		31
333		31
269		31
183		31
66		31
-43		31
-106		31
-73		31
-83		31
-78		31
-38		31
28		31
91		31
105		31
155		31
347		31
442		31
466		31
470		31
441		31
395		31
272		31
130		31
61		31
51		31
-2		31
1		31
29		31
96		31
111		31
171		31
402		31
608		31
612		31
500		31
305		31
136		31
-37		31
-258		31
-385		31
-348		31
-294		31
-291		31
-269		31
-217		31
-159		31
-115		31
-50		31
68		31
192		31
235		31
236		31
247		31
265		31
227		31
144		31
159		31
282		31
334		31
348		31
370		31
387		31
348		31
281		31
247		31
283		31
250		31
180		31
145		31
224		31
252		31
179		31
65		31
23		31
45		31
-8		31
-46		31
-40		31
-32		31
-65		31
-82		31
-21		31
170		31
314		31
314		31
248		31
265		31
292		31
326		31
284		31
259		31
213		31
120		31
57		31
32		31
24		31
-10		31
-88		31
-92		31
-50		31
-45		31
-5		31
15		31
65		31
54		31
23		31
55		31
188		31
289		31
316		31
348		31
415		31
429		31
405		31
344		31
339		31
326		31
245		31
131		31
46		31
-27		31
-104		31
-124		31
9		31
199		31
336		31
401		31
357		31
332		31
236		31
129		31
72		31
105		31
112		31
49		31
-52		31
-139		31
-217		31
-279		31
-322		31
-194		31
-24		31
134		31
297		31
404		31
442		31
330		31
223		31
178		31
202		31
200		31
186		31
191		31
181		31
89		31
1		31
-11		31
92		31
167		31
197		31
184		31
156		31
98		31
20		31
55		31
263		31
442		31
431		31
347		31
253		31
165		31
54		31
-60		31
-72		31
-57		31
-98		31
-120		31
-65		31
-14		31
15		31
41		31
96		31
262		31
434		31
477		31
424		31
376		31
230		31
76		31
-45		31
-19		31
5		31
9		31
-19		31
-33		31
-12		31
-1		31
44		31
132		31
255		31
313		31
375		31
389		31
360		31
293		31
216		31
196		31
288		31
434		31
516		31
454		31
418		31
299		31
155		31
90		31
122		31
184		31
158		31
66		31
-36		31
-112		31
-104		31
-104		31
-104		31
-51		31
-109		31
-170		31
-197		31
-145		31
-120		31
-158		31
-166		31
-83		31
-45		31
1		31
74		31
134		31
194		31
235		31
286		31
376		31
415		31
394		31
331		31
283		31
214		31
97		31
-33		31
-83		31
-48		31
-32		31
16		31
58		31
137		31
184		31
221		31
290		31
450		31
514		31
518		31
509		31
471		31
396		31
295		31
219		31
235		31
197		31
116		31
54		31
-23		31
-22		31
-61		31
-122		31
-96		31
-16		31
41		31
102		31
217		31
393		31
502		31
454		31
380		31
399		31
345		31
275		31
195		31
89		31
-31		31
-166		31
-243		31
-109		31
27		31
54		31
59		31
69		31
82		31
18		31
-57		31
-29		31
37		31
33		31
44		31
75		31
121		31
88		31
33		31
24		31
93		31
135		31
184		31
226		31
266		31
251		31
197		31
150		31
183		31
235		31
240		31
176		31
122		31
118		31
148		31
178		31
162		31
182		31
161		31
102		31
44		31
23		31
-4		31
-69		31
-41		31
192		31
357		31
365		31
360		31
340		31
272		31
176		31
111		31
171		31
212		31
139		31
57		31
30		31
6		31
13		31
51		31
249		31
396		31
376		31
328		31
232		31
188		31
85		31
-51		31
-90		31
29		31
82		31
55		31
72		31
108		31
109		31
88		31
42		31
82		31
104		31
54		31
-16		31
-28		31
-17		31
9		31
91		31
185		31
277		31
327		31
328		31
328		31
345		31
305		31
208		31
143		31
187		31
103		31
18		31
0		31
-10		31
-52		31
-112		31
-83		31
30		31
109		31
116		31
110		31
101		31
104		31
72		31
69		31
166		31
296		31
353		31
370		31
370		31
384		31
351		31
278		31
277		31
393		31
437		31
375		31
247		31
130		31
25		31
-60		31
-120		31
-84		31
32		31
103		31
79		31
81		31
100		31
103		31
135		31
334		31
563		31
549		31
434		31
297		31
128		31
-49		31
-198		31
-291		31
-305		31
-330		31
-391		31
-427		31
-340		31
-261		31
-212		31
-116		31
110		31
353		31
477		31
565		31
645		31
684		31
606		31
475		31
418		31
368		31
284		31
173		31
55		31
-23		31
-159		31
-271		31
-279		31
-166		31
-64		31
18		31
82		31
159		31
176		31
120		31
116		31
176		31
200		31
155		31
112		31
83		31
41		31
3		31
-34		31
45		31
189		31
258		31
313		31
350		31
361		31
340		31
296		31
244		31
240		31
189		31
116		31
72		31
69		31
71		31
82		31
118		31
282		31
413		31
396		31
370		31
317		31
255		31
148		31
27		31
12		31
20		31
-47		31
-52		31
1		31
118		31
262		31
330		31
426		31
541		31
564		31
499		31
352		31
193		31
19		31
-149		31
-285		31
-229		31
-118		31
-32		31
25		31
68		31
92		31
86		31
173		31
347		31
396		31
382		31
314		31
185		31
75		31
-43		31
-75		31
-93		31
-78		31
-101		31
-151		31
-181		31
-119		31
-113		31
-165		31
-202		31
-72		31
70		31
139		31
173		31
209		31
245		31
216		31
192		31
230		31
290		31
291		31
229		31
155		31
138		31
94		31
37		31
1		31
52		31
68		31
121		31
227		31
305		31
307		31
294		31
252		31
290		31
325		31
340		31
358		31
384		31
376		31
278		31
167		31
105		31
140		31
117		31
83		31
58		31
88		31
87		31
39		31
-3		31
115		31
282		31
402		31
446		31
422		31
319		31
214		31
192		31
210		31
186		31
126		31
25		31
-39		31
-80		31
-168		31
-255		31
-251		31
-206		31
-193		31
-115		31
39		31
196		31
265		31
263		31
289		31
405		31
473		31
485		31
395		31
314		31
199		31
22		31
-82		31
-92		31
-43		31
-26		31
-37		31
2		31
27		31
20		31
-33		31
-23		31
34		31
-17		31
-51		31
-41		31
7		31
21		31
35		31
49		31
148		31
247		31
264		31
244		31
251		31
254		31
256		31
263		31
328		31
416		31
429		31
394		31
384		31
384		31
356		31
355		31
500		31
625		31
568		31
470		31
339		31
211		31
38		31
-132		31
-253		31
-262		31
-236		31
-182		31
-169		31
-82		31
50		31
109		31
58		31
88		31
90		31
40		31
27		31
-10		31
-45		31
-46		31
6		31
46		31
105		31
105		31
81		31
74		31
135		31
150		31
143		31
126		31
138		31
171		31
197		31
177		31
155		31
146		31
94		31
29		31
70		31
105		31
84		31
82		31
103		31
115		31
86		31
38		31
64		31
174		31
284		31
313		31
270		31
256		31
185		31
118		31
141		31
278		31
321		31
332		31
343		31
326		31
260		31
143		31
58		31
105		31
132		31
86		31
26		31
48		31
122		31
198		31
374		31
630		31
851		31
860		31
733		31
565		31
357		31
102		31
-183		31
-377		31
-434		31
-484		31
-426		31
-384		31
-269		31
-137		31
-69		31
51		31
262		31
